Time,Channel_1,Channel_2
0.0,1.479192619092354,1.253254145027996
0.004,1.3959123699389366,1.1444343420545322
0.008,0.6234754356847483,0.498311529539598
0.012,-0.5431334961102658,-0.40804410870763547
0.016,-1.313144402343952,-0.9914059779027998
0.02,-1.4606770642337272,-1.1643047985809154
0.024,-1.1747643143679996,-0.9470232243049188
0.028,-0.6296935491589587,-0.5158387596718119
0.032,-0.1465219826219988,-0.18940576583728075
0.036000000000000004,-0.296352814264014,-0.19101135079357587
0.04,0.03990472871603664,0.05960544549667652
0.044,0.27140825395138235,0.20504047898779065
0.048,0.12040849357244687,0.09381834274503556
0.052000000000000005,-0.10232600528529752,-0.10144507025673975
0.056,-0.17811935689052089,-0.16980357659468068
0.06,0.029360753527987102,-0.025969453092367117
0.064,0.15799932566716374,0.17641422601765197
0.068,0.16821996706190967,0.09541699912115274
0.07200000000000001,-0.11697822400967954,-0.0704167543657726
0.076,-0.16306373913341793,-0.17685213679998277
0.08,0.06927179340154353,0.03693146562098191
0.084,0.26855275074235696,0.15276585483611863
0.088,0.046190571798872884,0.11296787320960532
0.092,-0.06936048382147023,-0.13335567871246823
0.096,-0.12023560940579271,-0.18508837865369876
0.1,0.02507572155821311,0.07724348633366449
0.10400000000000001,0.30510611214439354,0.2596694081640112
0.108,0.14726001305895725,0.05957824984956904
0.112,-0.25984826588524695,-0.15055261004857481
0.116,-0.3400961515325748,-0.28811104704445756
0.12,-0.3641940233108415,-0.13629012081251973
0.124,-0.20884171038232072,-0.10939096434544932
0.128,-0.11952474801389877,-0.15564485413644405
0.132,-0.4424916953863471,-0.34479221031838275
0.136,-0.5450025015054463,-0.4650982570314941
0.14,-0.38186661397989224,-0.3136486435014633
0.14400000000000002,-0.18509789462898352,-0.05778871620882963
0.148,-0.08644072568989385,-0.1575015311085001
0.152,-0.36182407024224317,-0.29954418840170227
0.156,-0.35468439303284377,-0.43597707315538353
0.16,-0.10741725799489651,-0.11425235769419696
0.164,0.13439272589738394,0.05576471293775135
0.168,0.04706539359210722,0.09327447841908745
0.17200000000000001,0.0403494206901458,0.042760006114489366
0.176,-0.04362227073448384,-0.11110169770668285
0.18,0.2574954785597797,0.1033836273996936
0.184,0.38791137182445323,0.38322202025014296
0.188,0.47779508919773417,0.34480768729023864
0.192,0.16239749460946962,0.1536963129611536
0.196,0.15174643993274847,0.10140199857504587
0.2,0.397894586526999,0.3674820800963492
0.20400000000000001,0.6096231326353085,0.4653101760729437
0.20800000000000002,0.43350452395710026,0.4209505398272238
0.212,0.18182382249236956,0.19942130099528949
0.216,-0.043537115643001445,0.057071595028157035
0.22,0.22328325610237051,0.24397742604933773
0.224,0.3424681024765243,0.2855905411027455
0.228,0.13134508943880985,0.1388742504614743
0.232,-0.060104192532689504,-0.02874211078743963
0.23600000000000002,-0.21931228944065936,-0.2386396021044768
0.24,-0.09214628301105218,-0.011773213469319158
0.244,0.08541227811382743,-0.007053954410886826
0.248,-0.21104739417689541,-0.016206559653641928
0.252,-0.38147475282413507,-0.35598076709560267
0.256,-0.5015613392470977,-0.4158069325648274
0.26,-0.29876052204338754,-0.30250921037736733
0.264,-0.17897910789396698,-0.10954215464979847
0.268,-0.2490866539741597,-0.15385432415432754
0.272,-0.39482716556746095,-0.39043468192260444
0.276,-0.49667550019040135,-0.3408403635825397
0.28,-0.19581182250370527,-0.11586141411708292
0.28400000000000003,-0.034048620868723206,0.03112357002283765
0.28800000000000003,0.07189073427066339,0.06874612581027231
0.292,-0.12214067130375317,-0.10012697762370994
0.296,-0.2298265050529557,-0.17302498182912296
0.3,0.0969789475436846,0.12662586096992762
0.304,0.172818451255796,0.25882745540255203
0.308,0.1631495668666232,0.1516046433515881
0.312,-0.023178865520701447,-0.04192842702086779
0.316,-0.19682991926669446,-0.15816359050497258
0.32,-1.0221204332201694e-05,0.04982597682987966
0.324,0.17290819226942916,0.21453987423534782
0.328,0.10610851390236412,0.12600377769641138
0.332,-0.13403945561753977,-0.1250580936121084
0.336,-0.15581495774491463,-0.10940723922317322
0.34,-0.0171800995939844,0.015908706567099765
0.34400000000000003,0.18313077865007804,0.1424258203592752
0.34800000000000003,0.13800066814330744,0.06466447897970685
0.352,-0.12242530457860444,-0.030911934891853704
0.356,-0.15401027130452513,-0.14267201711233266
0.36,-0.06114451318402298,0.03244251883417654
0.364,0.18951096723033567,0.19538263735361946
0.368,0.10547427147033275,0.10007613848395847
0.372,-0.03532186124104879,-0.13436231626221437
0.376,-0.12426590094303258,-0.1691191669977003
0.38,0.02454800870712252,0.011632798678860391
0.384,0.282437118857376,0.2914330187587449
0.388,0.2014861685120019,0.09207903620881816
0.392,-0.03607558010506989,-0.06350712254589982
0.396,-0.16134485454224562,-0.0914898558516822
0.4,-0.04688266862733338,0.03922634128976893
0.404,0.2732214710456423,0.2114513156367327
0.40800000000000003,0.13206529643062706,0.10329802642029803
0.41200000000000003,-0.08076948193971516,-0.07839365625717704
0.41600000000000004,-0.12265881237355834,-0.12150466538877351
0.42,0.09545205413663033,-0.004770182269820934
0.424,0.22832029711523869,0.2253428215295956
0.428,0.19649188766317255,0.13609649090813206
0.432,-0.06611602687249128,-0.0905806096599846
0.436,-0.11830849829535639,-0.1732884998559015
0.44,0.04693419567366703,-0.026505116806910138
0.444,0.31120227094009145,0.2415424768210961
0.448,0.18061509042283375,0.08384789671607418
0.452,-0.07742686097782096,-0.033510760574859515
0.456,-0.22346205546644782,-0.13013040824011093
0.46,-0.033667263886984315,0.08919095212782815
0.464,0.17307335850166186,0.17808495220369577
0.468,0.14175933475412333,0.14087951008814126
0.47200000000000003,-0.019608604358884542,-0.09360509821032716
0.47600000000000003,-0.11736167911620671,-0.15927075360132145
0.48,0.0022535943325551824,0.024660706426988505
0.484,0.23834912099605757,0.2078592410710466
0.488,0.15424625078271526,0.12434959920941471
0.492,0.019479220083649412,-0.10288138498102273
0.496,-0.11537148098866037,-0.11675781438566679
0.5,-0.04490774497152077,0.019152056185582085
0.504,0.3316769292295708,0.20213024136453742
0.508,0.22271270591779802,0.18025889041767185
0.512,-0.0676187567023298,-0.09713900539502344
0.516,-0.1025242179955426,-0.15098640236929226
0.52,0.059548224259909924,-0.005942579845364768
0.524,0.21931925719492262,0.19303138918083287
0.528,0.1636645431682126,0.16998958415075216
0.532,-0.031832278135291096,-0.1363285426219908
0.536,-0.11401934073698292,-0.09424539828166631
0.54,0.06520062614850025,0.03709007837347532
0.544,0.3404637451114981,0.17941319388243207
0.548,0.17162156649242527,0.11454844213641496
0.552,-0.06398384751761553,-0.027010670000736314
0.556,-0.0603389057654366,-0.08715079196322309
0.56,-0.009280891466899345,0.03903296127466754
0.5640000000000001,0.32474495360917965,0.2620151672208447
0.5680000000000001,0.1732147253894831,0.2143941417353213
0.5720000000000001,-0.07591421388534542,-0.11557099916564836
0.5760000000000001,-0.10662397875535715,-0.1989665041379362
0.58,0.1473077811001245,0.05522230972957458
0.584,0.24513829493325,0.18493333902237563
0.588,0.25851655674354335,0.16104028660877107
0.592,-0.01728213229408431,-0.10025936642062742
0.596,-0.18275186319158696,-0.17173539419995149
0.6,0.0688951722654235,0.04765808465508016
0.604,0.3103515663828111,0.15931462177380745
0.608,0.17888733565342177,0.20240601654687213
0.612,-0.08718713504588066,-0.1418429790729083
0.616,-0.11511391339175868,-0.11159995633666454
0.62,-0.002291352082809457,0.06339650577548178
0.624,0.2378032427075169,0.25539158259216294
0.628,0.1625443183615664,0.10498421521895737
0.632,0.0482209841408856,-0.04592220142634818
0.636,-0.16217730430359298,-0.1466490905272573
0.64,0.06503671699801557,0.036690455722635656
0.644,0.36091390543881796,0.24058335642229522
0.648,0.17352544477543339,0.1566420436814271
0.652,-0.01814980158737299,-0.1013221184029034
0.656,-0.11555954523706002,-0.1299373636739175
0.66,0.004096326740080002,0.001049524239153568
0.664,0.031823184063573054,0.15365978384440032
0.668,0.006074905596272829,0.017943073156145913
0.672,-0.3238073160321881,-0.2091800947690072
0.676,-0.4184259945713993,-0.3346315735544094
0.68,-0.07394798071271413,-0.1268537442612003
0.684,0.03436393131876139,0.08317741756650403
0.6880000000000001,0.14598657923574565,0.13271022382091904
0.6920000000000001,-0.06896121082081548,-0.10939839527509136
0.6960000000000001,-0.1012325591355763,-0.03579822180453266
0.7000000000000001,0.3314956290290801,0.2273890994497125
0.704,0.4342148609339964,0.3717341356088552
0.708,0.4519461367119908,0.38000422050420557
0.712,0.2492848782349697,0.16519897000303188
0.716,0.03139862118928322,-0.037977218123554354
0.72,0.09688991029841723,0.10501266708444663
0.724,0.16387260718064112,0.2084266658803993
0.728,-0.013125779688785685,0.14840167151335582
0.732,-0.3114803281195916,-0.2507126385103402
0.736,-0.35213628419025633,-0.3095412034041158
0.74,-0.23129818660403073,-0.16646982160672374
0.744,0.032352692397644975,0.11225352943431964
0.748,0.1021828069844643,0.07136058322388267
0.752,-0.08180871565236272,-0.15479408500894648
0.756,0.013491801646222365,-0.10891403896970103
0.76,0.11026617458210193,0.03176740058794861
0.764,0.21542271871405508,0.22774007493441167
0.768,0.22380540122355738,0.1350816175533487
0.772,0.0007857401740650541,-0.039689734126128
0.776,-0.15515016549217808,-0.1421184003941816
0.78,0.08806363218138819,0.0053611188938008855
0.784,0.2837789334101096,0.20625552093355065
0.788,0.11789034488275622,0.1506880196031604
0.792,-0.09212209374635064,-0.039615450645493044
0.796,-0.07765087676242419,-0.13397673282230105
0.8,0.16569521347925342,0.12659783323454255
0.804,0.2946165057737777,0.2330676081006843
0.808,0.20522980308061498,0.15878218888347778
0.812,0.02711659953056221,-0.09039456209274835
0.8160000000000001,-0.1381754991410272,-0.06926809110631427
0.8200000000000001,0.11497794550398518,-0.06160115672849779
0.8240000000000001,0.3451648913806211,0.2790497857793331
0.8280000000000001,-0.26997107394236985,-0.18151510135789092
0.8320000000000001,-1.3069716522345096,-1.0302653242793989
0.836,-1.614164144327769,-1.2774440740406046
0.84,-1.2044544240643826,-0.9205754606262654
0.844,-0.18594655205843683,-0.2989066094790786
0.848,0.4755695737996443,0.4135201101114064
0.852,1.0364291889245048,0.8372184352752368
0.856,1.4760751996979247,1.0635741885526024
0.86,1.4082980445849227,1.2225374848897894
0.864,0.971126741182972,0.8378612261710996
0.868,0.17692142221809068,0.07045817212455929
0.872,-0.9588628944197792,-0.7501861349415555
0.876,-1.5249924145150577,-1.2362810262554937
0.88,-1.3580229083204718,-1.0992596082874484
0.884,-0.6833761438546739,-0.5489691630805279
0.888,0.19954110145328435,0.2118175600824744
0.892,0.021631084261722645,-0.00979510743790014
0.896,-0.1273227993109568,-0.14002741708436983
0.9,0.022207397654500062,0.11026847395219641
0.904,0.3354348200678995,0.2282263473838029
0.908,0.23318447265005493,0.24528868677789858
0.912,0.07188743915503211,-0.09315558336141627
0.916,-0.18534566079108863,-0.12706034083455603
0.92,-0.0421883649810213,0.14344382591405852
0.924,0.23495443874644908,0.22091075862612283
0.928,0.20001574532372576,0.1820503088452391
0.932,-0.09526062681500419,-0.0395052901553672
0.936,-0.08327928620610935,-0.0999764321392557
0.9400000000000001,0.0618102015963565,0.09581958786133407
0.9440000000000001,0.22914887769166714,0.3232527564872073
0.9480000000000001,0.18903813773135544,0.1607317626605186
0.9520000000000001,-0.0521332062667815,-0.008017776043572792
0.9560000000000001,-0.04157361111751921,-0.09207827212368244
0.96,0.1711747367941016,0.11448820315694005
0.964,0.3287170620675542,0.23192888478292076
0.968,0.11047455031881759,0.08563383448398275
0.972,-0.23566849127234593,-0.17355167039241198
0.976,-0.3447345855326713,-0.25446507248875555
0.98,-0.17192128188583947,-0.2060093549134224
0.984,0.023391480867913386,-0.03820375269135842
0.988,-0.15067091239821134,-0.14389326327945845
0.992,-0.27015422936516903,-0.3127691903982828
0.996,-0.37343681951203,-0.4218536997446035
1.0,-0.235785770797964,-0.2655394651651847
1.004,-0.03450664562178324,0.03965204456613447
1.008,-0.06434092411558084,-0.023418881777627385
1.012,-0.3543787573899563,-0.2682595350361465
1.016,-0.27020305781250187,-0.24069392765864317
1.02,-0.04031743992405161,0.03563450750049488
1.024,0.28783146194990705,0.2509921989866062
1.028,0.3045184618647694,0.26232940121570203
1.032,0.059355346225260806,0.07524635865117663
1.036,0.011218176020191678,-0.011601990201117726
1.04,0.3040971189519204,0.2949220655389764
1.044,0.5899551530297883,0.521201143576977
1.048,0.6086070328978629,0.4636882324255651
1.052,0.3826657640252045,0.2702166061445463
1.056,0.20842299465758882,0.11906697287387857
1.06,0.4451956305204632,0.4034894822653799
1.064,0.6579386562856233,0.5402332217280117
1.068,0.5385182195485534,0.4440010649307079
1.072,0.31949452788802846,0.18362925691875057
1.076,0.1648807775815469,0.09642423510330372
1.08,0.23104802895323664,0.29296499969559986
1.084,0.3547246223498405,0.2838116994293875
1.088,0.21857915244804088,0.17057186167421357
1.092,-0.04949188443131319,-0.10521339605639415
1.096,-0.19711515639455007,-0.17117820987207322
1.1,-0.11413646329011504,-0.07148474214751514
1.104,0.03872387695759715,0.08342399968684538
1.108,-0.1415811563080061,-0.09111809750223081
1.112,-0.4038836267922253,-0.27090636315427735
1.116,-0.43310144852893917,-0.4174898904170063
1.12,-0.19895577849757257,-0.23269218765276384
1.124,-0.0712312543696431,-0.10725084490101655
1.1280000000000001,-0.2620818476045499,-0.07837837287134619
1.1320000000000001,-0.29784889992450087,-0.29595282012517765
1.1360000000000001,-0.21668863526645776,-0.3401998309175083
1.1400000000000001,-0.05614364696910759,0.0075771438590119256
1.1440000000000001,0.14788485503925547,0.16067309734902882
1.1480000000000001,0.11693822313683794,0.10051552703047051
1.1520000000000001,-0.05993159195094584,-0.06980146453777532
1.156,-0.05234211605281065,-0.031177827586969138
1.16,0.1773097665461394,0.033668636437161906
1.164,0.3293953572057171,0.2229534939968447
1.168,0.24286629927001036,0.15395887272184153
1.172,-0.03648859384202939,-0.02922115627923997
1.176,-0.08963354118409374,-0.10963635045284606
1.18,0.03086872680160152,0.11088196742675516
1.184,0.2562907566717217,0.1853384584350389
1.188,0.25170801649384095,0.12033704354376501
1.192,0.025211065030935488,-0.014837791299649138
1.196,-0.048618241576687725,-0.0764168522964974
1.2,0.13034057747114577,0.01979367300544546
1.204,0.3184823344871651,0.3687083728076049
1.208,0.2604529248170227,0.14107685008793122
1.212,-0.03869383462806269,-0.04748614735139792
1.216,-0.1040223747165547,-0.06953750222032958
1.22,0.08669583093104044,0.1747538509478664
1.224,0.32960049654256285,0.2671544506049283
1.228,0.29515302884861017,0.20144214678261918
1.232,-0.010547420613136982,0.04507740361507137
1.236,-0.05777065013129602,-0.11717725390328118
1.24,0.1527941877366255,0.08089301915113199
1.244,0.2911635018825673,0.24728854756757138
1.248,0.24563247708122107,0.15807344157416164
1.252,-0.048126440545192474,0.012115326815155592
1.256,-0.06876338302504427,-0.05932117986016347
1.26,0.10099513901491662,0.12807852812741632
1.264,0.23440303145104324,0.2535549231216998
1.268,0.20861952650218013,0.1806738026222413
1.272,-0.0783629766120306,0.036310488379391145
1.276,-0.01433483254957097,-0.107988705046925
1.28,0.1641433995884608,0.08805716648619465
1.284,0.3199131024058713,0.26128798038963097
1.288,0.32972694202032465,0.1834242136089658
1.292,-0.0271467293703758,0.007209429614433133
1.296,-0.1668523336231862,-0.08539774125525229
1.3,0.07010706488087359,0.17375811363357507
1.304,0.2968623532322977,0.31791584541738616
1.308,0.18433636718355623,0.23783181987534888
1.312,-0.01440838241736508,-0.019680800079937846
1.316,-0.03496333263846844,-0.0017487686207936642
1.32,0.08152088677491404,0.12140108591860818
1.324,0.274442786630465,0.31986592047871376
1.328,0.2788205172594637,0.13915313498984266
1.332,0.03770552283834918,0.024262796657310064
1.336,-0.05352105294968416,-0.07697548210881984
1.34,0.08620522885998355,0.0967763203699851
1.344,0.3672297825979802,0.3155670530708411
1.348,0.29701704116958705,0.19064328444888326
1.352,0.014448015705142089,-0.005979341503018785
1.356,-0.0686609644722361,-0.04600182276151207
1.36,0.11746254508018883,0.15812390152445166
1.364,0.27861580611763537,0.2807395349023108
1.368,0.2473600901720723,0.21535565043001664
1.372,0.012760256979345633,0.03317595253306963
1.3760000000000001,-0.09376722338776873,0.04004675604002782
1.3800000000000001,0.13427981068379374,0.08643805714530717
1.3840000000000001,0.2993853722080044,0.34677772073984975
1.3880000000000001,0.2859140009622262,0.15352748911063285
1.3920000000000001,0.1169009396450725,-0.0741990897681416
1.3960000000000001,-0.1276875954848865,-0.0703820500967779
1.4000000000000001,0.09986983781872433,0.13128424226348578
1.4040000000000001,0.28856382102001876,0.25486846012535935
1.408,0.2218015715019193,0.15674974460385746
1.412,-0.02072228050025026,-0.026571149184209334
1.416,-0.05286075699715634,-0.08007230650128738
1.42,0.11589626525440398,0.11686001576736468
1.424,0.27945695224022,0.2421320687482733
1.428,0.1388627769387875,0.18297829215718128
1.432,0.030805752832247523,-0.038963125648750006
1.436,-0.11359428787445794,-0.06801069625226312
1.44,0.2146377034622643,0.1327331024897257
1.444,0.3438785165794831,0.29572309681860637
1.448,0.1840431615935515,0.18119850189310546
1.452,-0.017158844582777506,0.0016447656701145505
1.456,-0.02260752340658223,-0.07102837049064462
1.46,0.14067145418427004,0.1279436985167633
1.464,0.28919366478530184,0.3075207823062258
1.468,0.29898384542275447,0.21551821822204026
1.472,0.10054018559605386,-0.05281031987373854
1.476,-0.026122997956114447,0.028871639431416435
1.48,0.14368736012664882,0.03725659185166387
1.484,0.29080819331381713,0.23875345980588736
1.488,0.18661158275969508,0.2003187587472381
1.492,-0.09126589356050595,0.00369983945692114
1.496,-0.0023815601533360084,0.007299583854662242
1.5,0.06865401770428703,0.07226060680862745
1.504,0.31239639391151425,0.2597579732727153
1.508,0.23183829968228065,0.14628297612234653
1.512,-0.02421203905568671,0.0010397726771607285
1.516,-0.08579802710549553,0.033416782657018154
1.52,0.11700659071599476,0.11095628029315793
1.524,0.18357237577248067,0.14830258021582682
1.528,0.023590997118380384,-0.021001844112688767
1.532,-0.19547873060462118,-0.16999961873996014
1.536,-0.292374870251344,-0.22473178354662907
1.54,-0.04302548574120185,-0.051583752378028425
1.544,0.22812862351019114,0.21255479048215611
1.548,0.33578312352274503,0.1456282642440247
1.552,0.04844151425490789,0.09455288491661436
1.556,0.08356440310451504,0.04718184969676544
1.56,0.336947777258984,0.3437395292175468
1.564,0.6403660856542042,0.4290045686720665
1.568,0.5955357143052875,0.4074635982989179
1.572,0.15039965906449487,0.19041140553909605
1.576,0.09064018436579088,0.010535757520016356
1.58,0.14113511263665401,0.1073024379588744
1.584,0.15439228332454522,0.18174007730478547
1.588,0.08604641375294414,0.13062652673551417
1.592,-0.1590688827640234,-0.295600455852437
1.596,-0.36076483557658373,-0.2643827879461871
1.6,-0.10087668677621456,-0.014302251756160941
1.604,0.13038179980485298,0.2546181212460101
1.608,0.1151990440891378,0.11136718122504549
1.612,0.08755885304381061,-0.026203615028800108
1.616,-0.1236846934537588,0.02628809847960946
1.62,0.16486425982564928,0.13731978420229712
1.624,0.3182342233125611,0.27155022768688153
1.6280000000000001,0.21820193148700934,0.16534073850438596
1.6320000000000001,0.06334251728474843,0.03470654042187178
1.6360000000000001,0.024134285004808506,-0.049344336634127
1.6400000000000001,0.16395941275317397,0.08682051097028637
1.6440000000000001,0.2719179956785849,0.27785674461627075
1.6480000000000001,0.2509812709090101,0.18073468904893739
1.6520000000000001,0.0015748709102871225,-0.03408242747544738
1.6560000000000001,-0.07235006258067939,-0.06168346614109375
1.6600000000000001,0.23193824369249733,0.06979160619421469
1.6640000000000001,0.34306917054403063,0.2981655429852361
1.668,0.2647574115748021,0.25387848547590275
1.672,0.09532926930543414,0.056029627231305515
1.676,-0.056335287476163204,-0.12112763227116727
1.68,0.1616732973529217,0.1548632576569599
1.684,0.31235045869786543,0.3405388142578887
1.688,-0.7944636525403184,-0.6224729754252324
1.692,-1.5379616428339706,-1.1274702201270221
1.696,-1.4029758672485968,-1.1563382337046544
1.7,-0.593311669243969,-0.4901806035327686
1.704,0.38798725992734723,0.26968085024646504
1.708,1.0585078772435073,0.8387197703764185
1.712,1.4284699496252744,1.1816132210328425
1.716,1.39369228242717,1.138999717799562
1.72,1.161146946114865,0.9630665336926361
1.724,0.481800246336821,0.4121778725753305
1.728,-0.4198288249534549,-0.34012742189959083
1.732,-1.223295561400522,-1.117098196077003
1.736,-1.4439828127696552,-1.2575911193681237
1.74,-1.026580602174506,-0.839119245792631
1.744,-0.020052413786656786,0.054154466570064765
1.748,0.2698990265846049,0.2132280754260996
1.752,0.06686859851064293,0.003371761490593428
1.756,-0.05040951332543529,0.024709883689826753
1.76,0.15250458699747554,0.14615197331948845
1.764,0.3631642097564243,0.32264712015346064
1.768,0.2900112126192485,0.25362520019714185
1.772,0.06351800709170154,0.016497316783945074
1.776,0.04743892115016357,-0.09157440146396972
1.78,0.149108810562014,0.11830595134491247
1.784,0.39354599767323706,0.32559525668875144
1.788,0.2249352208104386,0.29072208598955473
1.792,-0.033597800038116105,0.07440529367225629
1.796,-0.009818849711402452,-0.06805918622387933
1.8,0.23222816414976244,0.15081715333596735
1.804,0.3339074691845835,0.28842164172365886
1.808,0.31688024949876803,0.20990099059362882
1.812,0.10171238610664449,0.033690189600165045
1.816,-0.054504458930967586,-0.0193587392222598
1.82,0.2345846050905258,0.16545276921534519
1.824,0.26766801785380745,0.2727927181462997
1.828,0.1547819359579689,0.13031495184309913
1.832,-0.177880465154765,-0.07660975361377233
1.836,-0.2728332172224861,-0.27134037984016157
1.84,-0.12429044114791117,-0.12104855883359752
1.844,-0.05150787768497478,-0.016427563511664113
1.848,-0.0533183338940456,-0.11176444350285251
1.852,-0.3687658344363613,-0.2613884402560945
1.856,-0.3600952775570204,-0.35909517114886835
1.86,-0.07724502206015554,-0.12749835310507884
1.864,0.045185964242960286,0.03146657030339886
1.868,0.0015572578474840892,0.06128996564495537
1.872,-0.19535759946809533,-0.13781720836455782
1.8760000000000001,-0.18415429621369966,-0.15334756934081317
1.8800000000000001,0.111145282567142,0.09926295897515339
1.8840000000000001,0.43365232238612494,0.31520623038439716
1.8880000000000001,0.3516543306816145,0.3833768043915971
1.8920000000000001,0.1751977261453824,0.13803587172812193
1.8960000000000001,0.17556947649888516,0.21862358982395919
1.9000000000000001,0.4515557125765143,0.36557137636044895
1.9040000000000001,0.736815524710324,0.567334032234636
1.9080000000000001,0.5436936066579741,0.5884052812792294
1.9120000000000001,0.40289915795791814,0.3201360290373653
1.9160000000000001,0.29411960876502136,0.2773470799376145
1.92,0.521489854442381,0.42530607141846144
1.924,0.6101026041230422,0.5416439123055279
1.928,0.5918507723150865,0.4606648428485163
1.932,0.25659407756436325,0.23835485850785817
1.936,0.10557740797169637,0.15155540977551735
1.94,0.2902256582006993,0.19928296192331707
1.944,0.35863439248306433,0.3684575160637744
1.948,0.3025312931173663,0.23593200284243293
1.952,-0.06005888191457843,-0.10633290544192395
1.956,-0.23601011595810964,-0.213348560375773
1.96,-0.04323710318301001,-0.06992758881079479
1.964,0.181837797262911,0.0865233190469088
1.968,-0.03276085847678634,-0.019002523343940605
1.972,-0.29485244848809505,-0.2887900528341251
1.976,-0.3562498580356141,-0.33997958729658406
1.98,-0.18425090425503998,-0.08839386386119606
1.984,0.05109876310661856,0.0014596829129444912
1.988,0.058882802620382105,-0.01615151801781029
1.992,-0.29197240374566086,-0.18894857397691467
1.996,-0.2390128297991706,-0.23788606823388794
2.0,0.008254553230830769,0.025887647397138707
2.004,0.3052732352475748,0.31459838211844127
2.008,0.3092113096109697,0.25578738835653875
2.012,0.047985214425927486,0.10212267787848353
2.016,0.011476568143557134,-0.025881862484803835
2.02,0.20132809973979165,0.1489153568398357
2.024,0.4051216128094649,0.27753347099295256
2.028,0.2645684148180608,0.2639407144706298
2.032,0.1463644101638456,0.04561016978292364
2.036,-0.018958148957633952,-0.05281234260431474
2.04,0.23072776134431347,0.15335886166502632
2.044,0.38508095539431486,0.2595820135646731
2.048,0.4082991204434601,0.24028433566451463
2.052,0.14957728544187132,0.05478035092549925
2.056,0.04087832166168622,-0.022136841738393517
2.06,0.20487620941325874,0.13294438884427665
2.064,0.3240677523779638,0.26751215252510824
2.068,0.25913878320668565,0.3225856130981055
2.072,0.048357128185380904,0.11401785146058445
2.076,-0.09114980593292794,-0.0375559001936934
2.08,0.16491394065030834,0.09581345325884394
2.084,0.3541958869559428,0.30182758189752795
2.088,0.26868209197626924,0.19197646868511709
2.092,0.051922624857351725,0.07834309235181883
2.096,0.028170570540874698,-0.058667534867296686
2.1,0.21691312518415562,0.14994935510192473
2.104,0.3146456732258754,0.3459009190797666
2.108,0.30715597677774087,0.274773881235497
2.112,0.05661449612146967,-0.01659531567039608
2.116,0.07889671068535253,-0.0301815118099008
2.12,0.2976922529892215,0.1283999914515148
2.124,0.31790727765980054,0.30168862867029983
2.128,0.2934296718262573,0.2577467632035658
2.132,0.07682919924076835,0.10081861399126142
2.136,-0.06374191052716786,-0.012181971220372232
2.14,0.19918900946215284,0.17005076001542713
2.144,0.43477587556825614,0.3565594096795214
2.148,0.28388506680295494,0.2410926673353726
2.152,0.09176086297399838,0.0004715867441438121
2.156,-0.01964057972894594,-0.07397654817948866
2.16,0.12679305008933114,0.15037901403314805
2.164,0.4662793621799219,0.3344141559833328
2.168,0.3178236943743048,0.300835202610634
2.172,0.07210191148697687,0.02799292598212754
2.176,-0.0003462840505380514,-0.011653737203724042
2.18,0.1279077990061605,0.12964951191854962
2.184,0.35393935707494856,0.35476237243812875
2.188,0.26580615549001896,0.19931735087733002
2.192,0.0229457313403681,0.08550559182816458
2.196,0.006411937895272436,-0.02027750476072158
2.2,0.16504652103642675,0.09879332841858539
2.204,0.34735011840462704,0.34518644570106105
2.208,0.321165710356176,0.2942638792843457
2.212,0.13570815157416333,0.08697017213680477
2.216,-0.036453928309680174,-0.04015435848822135
2.22,0.1705416228746975,0.16667832390194692
2.224,0.3717102848267374,0.3228931040737807
2.228,0.26477463956957337,0.30608646563583913
2.232,0.022151906151629625,-0.021975862965320267
2.236,0.015117480533684557,-0.03500616889856689
2.24,0.17806673828141245,0.1951296331722078
2.244,0.3794733278290834,0.2994316158318042
2.248,0.34957148458737797,0.3236064865399167
2.2520000000000002,0.09524230404673405,0.06464401109848092
2.2560000000000002,0.02607767904134667,-0.03438029980004436
2.2600000000000002,0.17056536512039688,0.10014701575718679
2.2640000000000002,0.3007726616907998,0.25810333144060993
2.2680000000000002,0.2669610661268271,0.280937917032798
2.2720000000000002,0.13432448447341067,-0.007567366503246652
2.2760000000000002,0.08655277655915473,-0.028502079629322462
2.2800000000000002,0.26100455373776443,0.12189119678893243
2.2840000000000003,0.452486040392361,0.34811079008914986
2.2880000000000003,0.2447124587647474,0.27371371625366403
2.2920000000000003,0.07352918258087314,0.050540269712295714
2.2960000000000003,-0.023265430716607128,0.0026598177362914775
2.3000000000000003,0.23183486950224103,0.15154771929705058
2.3040000000000003,0.4645626148644918,0.3489110450659886
2.308,0.3674431412796666,0.27533071838367884
2.312,0.08561405682845548,0.07321311372515973
2.316,-0.037633260222286205,0.030439364604110467
2.32,0.16752042071349338,0.1024703799361347
2.324,0.3991786579611044,0.29135722039592843
2.328,0.28312078510325256,0.2602931129901279
2.332,0.12332732583344716,0.09373067195569332
2.336,-0.06261118172380298,0.004922081099182475
2.34,0.22468075575650304,0.1664440938909076
2.344,0.3716742073048598,0.2941060602704389
2.348,0.3848141321895959,0.26262480248299663
2.352,0.04486499785147101,0.10868405672377897
2.356,0.03087166236216238,-0.01913848398381702
2.36,0.17084835344975546,0.08556447936701464
2.364,0.48222011242089075,0.35046844690229967
2.368,0.3481456965274512,0.24418039458817412
2.372,0.14902681447239424,0.11919220464139256
2.376,-0.029660254491257466,-0.030854479570882394
2.38,0.002237859136166351,0.07680783700454108
2.384,0.210072964808362,0.15075487324887418
2.388,0.08656838210932352,0.09224120101538065
2.392,-0.21187991319332775,-0.14037845214472522
2.396,-0.18457043105227589,-0.13855645342087364
2.4,0.0090780700541426,0.08638180954527658
2.404,0.38039580018179137,0.3132248121887992
2.408,0.39186804675866765,0.3597090193542267
2.412,0.22479681540435084,0.18802497758634584
2.416,0.34031353889923144,0.11303460943021099
2.42,0.45582284935938466,0.41749535477949345
2.424,0.5839007114456196,0.5091036504763626
2.428,0.5028959642952004,0.45091340581653855
2.432,0.16731614798360797,0.1892722992019556
2.436,0.12280067546324927,0.12310729075609683
2.44,0.13077862063771528,0.10240740877830926
2.444,0.2473694601172692,0.12281359920734626
2.448,0.13491757235464463,0.11885160122040314
2.452,-0.06229321143413931,-0.1273650404600056
2.456,-0.34142574663470066,-0.24775036781667825
2.46,-0.009502879977132225,-0.017932139387118712
2.464,0.2574443048775483,0.2626175308015381
2.468,0.3669674972694654,0.23303754471393656
2.472,0.10114510523063952,0.048368066362526066
2.476,0.0953077698484279,0.05705322579206204
2.48,0.22391747330781803,0.12836478005196822
2.484,0.4215110850144205,0.24237322394378685
2.488,0.29323575670478585,0.2200493152278769
2.492,0.09599498423714815,0.04973044272641816
2.496,0.08228507766887597,-0.0054287923968544365
2.5,0.2163098310104628,0.08034859072364728
2.504,0.47979015471917763,0.3557320591013053
2.508,0.40246313927953103,0.27424727207276156
2.512,0.02274985216759598,0.10729646277893687
2.516,0.02103513416943207,0.02831511942260626
2.52,0.1732730596725078,0.18781649120530275
2.524,0.38305717727695837,0.3318941197992493
2.528,0.31993778582397325,0.295976018852399
2.532,0.09431491839321626,0.1312766896477115
2.536,0.04962906655777076,0.005493066357834019
2.54,0.15842513734503727,0.13684287933328582
2.544,-0.38490018872792287,-0.30570259586461046
2.548,-1.0666682007137112,-0.8269620507092679
2.552,-1.3534877980717077,-0.9870206005940807
2.556,-0.9901147298399996,-0.8644356513390838
2.56,-0.017704968012044277,0.025985154077290015
2.564,1.089929052311363,0.8006102920484506
2.568,1.5908030266702697,1.3467172990925815
2.572,1.5859998358603002,1.2227915882600024
2.576,1.222383244822859,0.9028182056676464
2.58,0.6461401043273897,0.5219572670448067
2.584,-0.15930106482738118,-0.11192430249371603
2.588,-0.8774637944256624,-0.6798977424058462
2.592,-1.4700295751391232,-1.1934418526345993
2.596,-1.2805742652818872,-1.011130754100706
2.6,-0.3994356954056125,-0.26334337026658144
2.604,0.4142366343026244,0.35983931545699843
2.608,0.2708009901380789,0.2506963525775575
2.612,0.165468490485629,0.0405886348383904
2.616,-0.018246278369542825,-0.010705629893787726
2.62,0.21918661699164838,0.17329775415385493
2.624,0.37336744207069544,0.2477247047289146
2.628,0.35250364715351346,0.2817390830028356
2.632,0.1153994021368429,0.055817985012632326
2.636,0.03799274584413331,0.05020854954078946
2.64,0.14741037722558537,0.18988898577114155
2.644,0.47786521113253805,0.4353280178287195
2.648,0.31226916510014846,0.30626002061568736
2.652,0.18350485213570328,-0.0015782658853431275
2.656,-0.014224012669933589,-0.04771402821349228
2.66,0.18454443250391367,0.16510793748466213
2.664,0.47017281304455616,0.34030515918887844
2.668,0.24062357903515663,0.24876191245607454
2.672,0.19420167811371505,0.19440780368107619
2.676,0.0489397489403709,0.037004360081544924
2.68,0.1440582689987444,0.13246615951566282
2.684,0.4339559330539083,0.23680409212340175
2.688,0.20675481892867945,0.13816876776723866
2.692,-0.15908521558435895,-0.13472448154602323
2.696,-0.18667457740375207,-0.22124189959739907
2.7,-0.050110089456573303,-0.15620708480228274
2.704,0.04474215309447224,0.08315859774502074
2.708,-0.04938299012283833,0.0060220919234294686
2.712,-0.24240849199880019,-0.20774472859868334
2.716,-0.26318351140898594,-0.26019693044145276
2.72,-0.05705817829147222,-0.09535430628156205
2.724,0.1544628838211844,0.09409296530730242
2.728,0.10700936873853786,0.13027146226908362
2.732,-0.09406625569011913,0.003243222150859336
2.736,-0.0003806113230755137,-0.0164730977460781
2.74,0.21751844100200934,0.2095234081936797
2.744,0.5758570345282503,0.46777913996188497
2.748,0.4832233206072245,0.4347924284609465
2.7520000000000002,0.34254225188355725,0.2374768327532049
2.7560000000000002,0.20089380148956232,0.25560348136741895
2.7600000000000002,0.6286624029343293,0.3824791664486549
2.7640000000000002,0.7386292778085145,0.6625379541661723
2.7680000000000002,0.6708700388457277,0.5941953419611674
2.7720000000000002,0.4078708815445286,0.3546976463365868
2.7760000000000002,0.3764987110480247,0.31418451981727596
2.7800000000000002,0.5775983386970547,0.44563691492091734
2.7840000000000003,0.7558711415587769,0.5491185330176034
2.7880000000000003,0.5298104273822648,0.5246003979719839
2.7920000000000003,0.2990343999482013,0.22822834897794544
2.7960000000000003,0.11978549416154739,0.12945893650586754
2.8000000000000003,0.3152672137177438,0.20738550541461412
2.8040000000000003,0.3625534266842869,0.2954726069026751
2.8080000000000003,0.3147628528058209,0.1702753658268222
2.8120000000000003,0.025877456964848708,-0.06365755472131487
2.816,-0.12572131341355733,-0.17609821045804694
2.82,-0.057486113371073344,-0.08788284555469884
2.824,0.10849367287380715,0.10718910376409305
2.828,0.047740475057528604,0.011347204039016975
2.832,-0.19687344450785635,-0.27356012798103935
2.836,-0.3555987370991073,-0.2397121819573365
2.84,-0.12896505297974806,-0.07486180581536804
2.844,0.07248120165701458,0.07550227691270989
2.848,0.07434549195914311,0.05509777345086022
2.852,-0.18042420462743042,-0.08192693536009749
2.856,-0.13332087028807527,-0.10234193461953044
2.86,0.18437553760988545,0.02122376758689476
2.864,0.4339492986515622,0.3217951097676543
2.868,0.40015544474280973,0.3718813054942988
2.872,0.10386262764949444,0.08174445435028994
2.876,0.08569333488229472,0.07006020608317115
2.88,0.24606348620488297,0.15807401700988732
2.884,0.41158089941736414,0.30727114542007455
2.888,0.3749451847860305,0.3549354247558123
2.892,0.15604031162320298,0.16158162600198078
2.896,0.05168814029869548,0.03525390139625806
2.9,0.21694496973162933,0.1831997477302498
2.904,0.39019456730664553,0.4205242570798433
2.908,0.3791100915576622,0.3270001892936792
2.912,0.1695705349860325,0.06916809001845155
2.916,0.06920308008671469,0.03915456947387232
2.92,0.31203392053446694,0.18079307600459002
2.924,0.40930073540651957,0.3666067156255455
2.928,0.3410760776502565,0.23521012703240388
2.932,0.1677013988691941,0.10033124451975955
2.936,0.03844859641531414,-0.07870284952673083
2.94,0.26532624993383747,0.1815795411507866
2.944,0.5423290639333401,0.36752960416255065
2.948,0.3565341805334354,0.29473054191225656
2.952,0.12818201402378682,0.11590026449289191
2.956,0.023913216941748954,0.020992486720461
2.96,0.2949006500065251,0.21266528413207209
2.964,0.44063175893538037,0.35882165884346245
2.968,0.30990699693256857,0.25697826531156454
2.972,0.1662909992598345,0.049376664934948286
2.976,0.15685864860248755,0.0060460503140114565
2.98,0.3107951893844475,0.1915560399271174
2.984,0.4184949456501814,0.37056455714663156
2.988,0.332049896065204,0.3585730918831652
2.992,0.07233977655784114,0.13890719749443065
2.996,0.05711060612409164,0.03552038480173926
3.0,0.2581780599802941,0.20565362888104807
3.004,0.5118446002925598,0.3711943388825832
3.008,0.34763148941391486,0.24020464415167384
3.012,0.08993031469395064,0.050138646332827656
3.016,0.11000564880587717,-0.009367351053436591
3.02,0.2336460022445693,0.1273236988622291
3.024,0.4649210260084653,0.3326619921305306
3.028,0.4787389293004545,0.25698236877996944
3.032,0.16277462460279285,0.17069086424232593
3.036,0.05405269225020203,0.11225325570297782
3.04,0.2270655612853887,0.2646745943138721
3.044,0.41019882815728825,0.40556873097637813
3.048,0.38523485984307276,0.28437511589461134
3.052,0.04127589162525,0.0996721712430053
3.056,0.10329510891515674,-0.02337905244937457
3.06,0.2701557018675424,0.13488097665069002
3.064,0.35663045576594443,0.35402014552240757
3.068,0.37820192843685624,0.2743993426633778
3.072,0.2135086197574242,0.10350606859148187
3.076,0.02630882926145049,0.07945577415155561
3.08,0.31912896120816436,0.16123448824497827
3.084,0.49367279101757827,0.3606492758760027
3.088,0.38572436459361564,0.2929628210065168
3.092,0.05208125175549565,0.13885282499454005
3.096,0.11396540215806944,-0.005437679330872823
3.1,0.2812359468801078,0.201404146826683
3.104,0.4480821883408131,0.3982104326976324
3.108,0.35493041739388403,0.2609272631967075
3.112,0.2038970600335497,0.19224331519297108
3.116,0.028292374413846827,0.028651991282894886
3.12,0.24203559307429978,0.20626178122596095
3.124,0.4711299937526136,0.4175172284232106
3.128,0.2790577322774714,0.2880224068681511
3.132,0.09190313532150482,0.14163775177815902
3.136,0.044992904455392224,0.058757083424549404
3.14,0.23909917927005378,0.2358953817381519
3.144,0.4500981704749904,0.4225222451877355
3.148,0.3196241918536983,0.3282256610069004
3.152,0.13172817690439198,0.10505317730237343
3.156,0.09658307910714131,0.09829463603476893
3.16,0.2749047636836015,0.2072510417650442
3.164,0.3969324714100109,0.29807471899770055
3.168,0.4009505431731278,0.29932600061857145
3.172,0.19213459184747203,0.09709026870990453
3.176,0.05947142632254891,0.0519894218930306
3.18,0.19718228498341933,0.18228688911946136
3.184,0.4158789902822556,0.3838249015387314
3.188,0.30162998797805446,0.24848350441643816
3.192,0.1650697321144608,0.10661130391951901
3.196,0.06441801738110096,0.10762040629337868
3.2,0.21277150536061157,0.21667950891348578
3.204,0.4357026217080224,0.3660959761810928
3.208,0.4567063486925468,0.34620224093047597
3.212,0.1620083821581834,0.030056084731804586
3.216,0.08696550692225599,-0.02806245876131435
3.22,0.2526772420932811,0.23341249494770103
3.224,0.4319888667231334,0.3939001209943287
3.228,0.3391749272129612,0.2712912208533144
3.232,0.13999928816777069,0.049662196843878056
3.236,0.036159756319733644,-0.08591052120255546
3.24,0.09687336988437137,0.004851026836228928
3.244,0.22098829341762866,0.1529048406367251
3.248,0.030203347000196792,0.06102009209694187
3.2520000000000002,-0.07506807466520064,-0.1316806859702185
3.2560000000000002,-0.12561569166108355,-0.0683099086411454
3.2600000000000002,0.1791339408732321,0.13758863402285348
3.2640000000000002,0.5338590769461781,0.3953496124962881
3.2680000000000002,0.519426629941875,0.4292805307169686
3.2720000000000002,0.28717789948822253,0.3025310692447595
3.2760000000000002,0.33596883580421283,0.23107526827187047
3.2800000000000002,0.3918848451615813,0.414600707536908
3.2840000000000003,0.5365592230023276,0.4893560688974826
3.2880000000000003,0.4733165350300639,0.44625316295588424
3.2920000000000003,0.15331904850627118,0.1037859170926915
3.2960000000000003,0.04887429041200613,-0.07307117513695077
3.3000000000000003,0.15973022392141412,0.10244432271924547
3.3040000000000003,0.2617352445231274,0.23901520922956712
3.3080000000000003,0.07283332211273652,0.16054757999759348
3.3120000000000003,-0.09415560498519716,-0.11836042322778809
3.3160000000000003,-0.12457445281786728,-0.09185845672655121
3.3200000000000003,0.12847288113141386,0.10929966608827688
3.3240000000000003,0.3678116515597254,0.4305959928139397
3.3280000000000003,0.45606269042780306,0.4101384829499598
3.332,0.14222999017462415,0.11110063197062277
3.336,0.01814948728311757,-0.02316447369235259
3.34,0.27836354364049853,0.19844593948846478
3.344,0.4780292894155725,0.45017234520953586
3.348,0.39302021648727964,0.23717420809983675
3.352,0.05016132852518908,0.13551702633737972
3.356,0.011299883650140646,0.012446250205563513
3.36,0.3280161806606633,0.19732704506516166
3.364,0.48180147229869774,0.31173158478354057
3.368,0.4082655607124225,0.27934121259693057
3.372,0.1725007989001376,0.08732848525055303
3.376,0.09990823048575426,0.09971166589246262
3.38,0.28643203339204654,0.23781244243601554
3.384,0.4869441230299471,0.4193356278191308
3.388,0.46272159588801165,0.2877787800460613
3.392,0.1906684410039952,0.15366345674126689
3.396,0.11431269355368809,-0.003127816876802622
3.4,-0.3090496640331123,-0.31633094211284535
3.404,-0.9058936149802614,-0.6696472205989408
3.408,-1.1051492871252218,-0.8282402113263182
3.412,-1.0027171413291986,-0.8311477481591265
3.416,-0.4096339361186308,-0.3578915431903122
3.42,0.582388385339919,0.5758248454043912
3.424,1.6204267304649014,1.2699740793462622
3.428,1.8341874737394828,1.5669037182074348
3.432,1.4808585066303086,1.0901397461395952
3.436,0.7057035507609799,0.5929631819232077
3.44,0.044714754440688356,0.048365332629875565
3.444,-0.48025495484499603,-0.42058970496862164
3.448,-1.1508239258804567,-0.9144047937907087
3.452,-1.2427595704703898,-1.0241746131770324
3.456,-0.7487961152140445,-0.6668264375444304
3.46,0.3976757218417232,0.2964982186053634
3.464,0.4118767007757491,0.3915724894179539
3.468,0.4388747312353793,0.31483557881721624
3.472,0.1368923610954497,0.07493345377838828
3.476,0.08538491406867418,0.09253791390113836
3.48,0.2404266176508916,0.22008829364199597
3.484,0.3578048360247662,0.3615568549852792
3.488,0.37139419945906943,0.314580195976952
3.492,0.1192552986557367,0.1150395228294925
3.496,0.08811398723394707,0.00197842975639434
3.5,0.2548313679115659,0.15687862982330175
3.504,0.5394673042224091,0.3824649876196396
3.508,0.314935675782709,0.2550942124455635
3.512,0.22506267889968873,0.09957051184572241
3.516,0.06851731396746497,0.07305908907897354
3.52,0.3283324621093744,0.19005674743248235
3.524,0.49800991775570624,0.3515626339589357
3.528,0.36271292521180387,0.32934040279246124
3.532,0.154554436143906,0.16636391304447273
3.536,0.006683097431618962,0.022662288215662123
3.54,0.16891755843881193,0.16960996347124666
3.544,0.27585624708354717,0.23603798877930973
3.548,0.10861671771369072,0.17911499045979784
3.552,0.0019523400750964676,-0.1303791366983579
3.556,-0.2057933127619614,-0.18462459026353878
3.56,-0.07017671953228732,-0.06060015568200422
3.564,0.12102548267506488,0.0772637031104864
3.568,0.12152084580098071,-0.03684340882584239
3.572,-0.2092134489926447,-0.19033087831431447
3.576,-0.2263331459158996,-0.2265859014385942
3.58,0.024338108838702677,-0.018333960810679433
3.584,0.23349638267589348,0.2645452473989356
3.588,0.3133959303197206,0.16530319756641448
3.592,0.03831206401158439,0.04674535815956825
3.596,0.1036425190304752,0.022603587170719364
3.6,0.29253316256038153,0.24066670372223267
3.604,0.49841640289749845,0.44807334424582146
3.608,0.5667389649868165,0.4705588182531305
3.612,0.3514181999077353,0.33394072344914094
3.616,0.3130092058698749,0.32351468709149145
3.62,0.5088639296803688,0.5818362343559403
3.624,0.7122247418183099,0.614636065130378
3.628,0.7763112334090956,0.6371430391428111
3.632,0.4574459471303439,0.40847583980399
3.636,0.46277237139389416,0.34818772083760036
3.64,0.6093680704913218,0.5067147410362752
3.644,0.7012053052424069,0.6056373122452141
3.648,0.5385572111255291,0.45433456971834807
3.652,0.30515805720356404,0.23758216921701653
3.656,0.22190652194365706,0.11411442270954902
3.66,0.3103015782708657,0.17078797945901866
3.664,0.4135642991122958,0.29207530347761734
3.668,0.31776566390261646,0.23738989454980414
3.672,-0.07313621977998906,0.003242450577374413
3.676,-0.14422244181037722,-0.25061876624082496
3.68,-0.11008986080291057,0.00967327515279924
3.684,0.07445329078293307,0.12701388101200428
3.688,-0.045415667973518606,0.008604632086007348
3.692,-0.2009116901749733,-0.20903509127348346
3.696,-0.2808386407113678,-0.22150986161891947
3.7,-0.10187633345880599,-0.03090013822966841
3.704,0.22400045497529922,0.19170110202027515
3.708,0.08420688261053694,0.05886510314622667
3.712,-0.005405262921932337,-0.09434400956193714
3.716,-0.017774766676264125,-0.0008536336606518452
3.72,0.27131029958774977,0.23508924290146896
3.724,0.38231642984970965,0.4435958106538116
3.728,0.4979768606823558,0.418368121497954
3.732,0.15641020329210978,0.114539684460174
3.736,0.08126450940981292,0.03878675131525763
3.74,0.2800420252326952,0.22295810542398964
3.744,0.4111204280247628,0.3901715040186316
3.748,0.39424840459633587,0.3397227972488197
3.7520000000000002,0.15050878859422273,0.0725275776828774
3.7560000000000002,0.0661622998711394,0.010925484090042917
3.7600000000000002,0.3366537825391312,0.20539751586058377
3.7640000000000002,0.48518050264201484,0.34596207920143035
3.7680000000000002,0.40963091429453186,0.3213846295228111
3.7720000000000002,0.09593652597905464,0.09816091685332756
3.7760000000000002,0.08113314944656,0.05531357561743045
3.7800000000000002,0.3278094410071252,0.22370798011087065
3.7840000000000003,0.5539885646332556,0.360077661353557
3.7880000000000003,0.3762969716283379,0.2985814427135197
3.7920000000000003,0.21787443661416,0.08630688841624404
3.7960000000000003,0.06526844794094734,0.023902868927835715
3.8000000000000003,0.31663396936045185,0.24449362001319935
3.8040000000000003,0.45372772000207295,0.40090911251575534
3.8080000000000003,0.4461201956017774,0.32778898227537634
3.8120000000000003,0.17975370894593723,0.10487506950781815
3.8160000000000003,0.12306337386772756,0.041545356493865926
3.8200000000000003,0.28770661368182177,0.14133549473694418
3.8240000000000003,0.4126236951830259,0.43591926692985933
3.8280000000000003,0.4086244323761704,0.3825848527074784
3.8320000000000003,0.13896740017461093,0.115486079545032
3.8360000000000003,0.12123845719358062,0.07246196774115869
3.84,0.24263520667291494,0.24508444550892264
3.844,0.3874688204189895,0.36540608453830614
3.848,0.40993700838074904,0.33813753168508576
3.852,0.23194092243515219,0.12013451061224245
3.856,0.1772579871870243,0.02500574895798533
3.86,0.25475184190884614,0.2619304627271328
3.864,0.41847322527114933,0.4677612557272324
3.868,0.4344326009383405,0.33273248865795896
3.872,0.13895819752214553,0.16156572363325963
3.876,0.058660632240369305,0.054757937142560935
3.88,0.3272709038871672,0.21475099999287087
3.884,0.4658031684786359,0.48385724162544225
3.888,0.29237024649952653,0.35356316869218013
3.892,0.0995538826823928,0.13340836042033882
3.896,0.15216515710676384,0.08344693284080856
3.9,0.3173914436743616,0.20574226778217966
3.904,0.47434632434611973,0.4169692642315943
3.908,0.3882098846566389,0.3882123373103883
3.912,0.1325318329076529,0.07645369189251397
3.916,0.13942724178743315,0.04104950954262286
3.92,0.33215362574087115,0.2474962104930042
3.924,0.5021283245312228,0.44726150302761286
3.928,0.41244322240169856,0.3295468488829373
3.932,0.16495799309151218,0.13141422960972118
3.936,0.11351865687904535,0.04626218174972667
3.94,0.20635436667667426,0.18267258458306013
3.944,0.45667613406154905,0.37101233245913606
3.948,0.3985314033826969,0.3167773677867323
3.952,0.13555373111130364,0.1534020942900485
3.956,0.15045081208160987,-0.007598976367454671
3.96,0.29474713590514195,0.22750183222721398
3.964,0.5234791534776027,0.42540755289729354
3.968,0.36881696566306954,0.37520645059745644
3.972,0.1595079139464583,0.13360388417738336
3.976,0.10386822541555267,0.12743750910241314
3.98,0.2941840318687689,0.17114218820131016
3.984,0.457295408589823,0.4205532337507252
3.988,0.43764545478511185,0.3810101958972273
3.992,0.17315021060147667,0.05652177996228715
3.996,0.08942459276159628,0.007034162113088133
4.0,0.2461720132474106,0.22683300680783777
4.0040000000000004,0.49787061650237735,0.40607067474761616
4.008,0.3689622828919291,0.3487899992239001
4.0120000000000005,0.04713437831692356,0.16878357542837152
4.016,0.18132256163831545,0.05358169739095981
4.0200000000000005,0.32417912672066984,0.18642354527481725
4.024,0.5207926334513175,0.4303815593628704
4.0280000000000005,0.4342526442732915,0.30473236104296686
4.032,0.1066895836354842,0.05302216989268903
4.0360000000000005,0.007481974433887581,0.07956293871062348
4.04,0.3191608028113273,0.16290810389938115
4.0440000000000005,0.537122369632358,0.3884361551279796
4.048,0.42510897267955894,0.32410478017879907
4.0520000000000005,0.10880789273746755,0.13246809701633297
4.056,0.11676868016719026,0.030665219919629356
4.0600000000000005,0.30008094564256327,0.23426416092528562
4.064,0.4842676864353024,0.4679963593788681
4.0680000000000005,0.444634006805092,0.3393207981920848
4.072,0.1468491513500286,0.198203933434724
4.0760000000000005,0.06194811115602088,0.11360348716674623
4.08,0.3861805190441934,0.23494551329945032
4.0840000000000005,0.46967253681378746,0.39649432453912964
4.088,0.47372100765737457,0.28604671794168746
4.0920000000000005,0.1055670390714789,0.075537740453893
4.096,-0.13257035065905048,-0.013935665054131928
4.1,-0.043045554024167314,0.0389508315978419
4.104,0.1924919055898295,0.18383507759145634
4.108,0.13503275876658474,0.2170413159559634
4.112,0.04017709764377029,0.028867686882886108
4.116,-0.022316342808393043,0.002600381995939014
4.12,0.2839474180111364,0.24571523339256515
4.124,0.5973674619253292,0.4368469443406295
4.128,0.47518481710280314,0.4639078324011309
4.132,0.4631578923977446,0.33078120611320794
4.136,0.3320685249566712,0.2715677335736836
4.14,0.5236221739483815,0.4297455877699186
4.144,0.6940042929059677,0.5308512446223201
4.148,0.4170897618624759,0.3879037711124578
4.152,0.24403593047068184,0.06006229750596321
4.156,-0.02797836026300007,-0.043372844143366805
4.16,0.11549486883406733,0.10918129087839706
4.164,0.1789499587523718,0.22547701811120444
4.168,0.14100734388660213,0.19168649776515456
4.172,-0.08518873707623136,0.008806965172224117
4.176,-0.021552270393311403,-0.12297700028157632
4.18,0.11944625060329422,0.16541047534693584
4.184,0.5230876251572312,0.4253145542183645
4.188,0.36716761470373416,0.3066132666767679
4.192,0.26791790845115404,0.09706059689651474
4.196,0.14155357727690726,0.11548056839425197
4.2,0.24474879516644393,0.26479104015026633
4.204,0.46086889566035727,0.32009558261354404
4.208,0.45120377648672383,0.3156235867964066
4.212,0.22572524551630824,0.12352337128163225
4.216,0.15294088775513615,0.025940271814129966
4.22,0.26798202455390224,0.28798729550618773
4.224,0.5031854242062821,0.4190964640593442
4.228,0.4234075410106187,0.34752174952145404
4.232,0.18322154725666906,0.1078548326289677
4.236,0.15177754378245256,0.0679096551688003
4.24,0.25266092817207986,0.14509145782858307
4.244,0.5907738308662865,0.4821259167104631
4.248,0.4584665191849912,0.3621862974768571
4.252,0.11690699384294154,0.09281452411468419
4.256,-0.29519237239493856,-0.269258752910666
4.26,-0.8383109733609058,-0.6623010854489513
4.264,-1.0222349211501658,-0.7756694980540682
4.268,-1.0005953318059528,-0.7058404661298122
4.272,-0.5319661334944831,-0.39050416915390074
4.276,0.32327061432872906,0.19442867782089848
4.28,1.2904597144675736,0.9839948721210368
4.284,1.9218140291027606,1.6039988000861938
4.288,1.808013421112403,1.4549653229961352
4.292,1.013455228094081,0.8956359441121887
4.296,0.12288542264595338,0.040399645317847475
4.3,-0.5267162222693925,-0.3337505669864642
4.304,-0.8836434514357598,-0.7215825705851139
4.308,-1.175626049636491,-0.9189930655135046
4.312,-0.9793598415331561,-0.7498438933515149
4.316,0.14385173884090396,0.10368255664354033
4.32,0.22387048066824008,0.19405848717104665
4.324,0.4519373507842531,0.4483243724626899
4.328,0.45611767492766847,0.32618072153010186
4.332,0.15806594552239606,0.14798308553898928
4.336,0.08768735729560481,0.1021096126335937
4.34,0.2741528663435505,0.2524297619973755
4.344,0.41328334722137516,0.35459514100761447
4.348,0.47933254273578363,0.34522827584664384
4.352,0.20784944346156745,0.06973293478283776
4.356,0.11827377437348544,0.07553485787047215
4.36,0.2144756645811161,0.20953302096833226
4.364,0.47883166691862594,0.41826575516977105
4.368,0.40074183416295667,0.2967643916326225
4.372,0.24521351000438568,0.10740032262883797
4.376,0.18354030938821692,0.01138267719779884
4.38,0.31040909962579927,0.30231804796281736
4.384,0.5163093855447073,0.3429533931678939
4.388,0.43337655391836516,0.35098402256242606
4.392,0.23084608806153825,0.10893144963662865
4.396,0.03096051638706593,0.012802346806574341
4.4,0.11460406223735478,0.03188255786970243
4.404,0.30638097747374304,0.18493882097851114
4.408,0.14808396080325745,0.12856042313950267
4.412,-0.048074146446680954,-0.07710850272998088
4.416,-0.22284740973883452,-0.21098141018805944
4.42,0.02656613056726228,-0.03941804362648494
4.424,0.18851087587029863,0.07785793147860771
4.428,0.11829964463979913,0.05957827551839573
4.432,-0.13725762606936195,-0.0582247367666351
4.436,-0.20250232198158497,-0.16691919621741524
4.44,0.06660805327342299,-0.031214533240137635
4.444,0.2677775775162813,0.22938451598326667
4.448,0.3292948600797881,0.223822323533169
4.452,0.26442778734624595,-0.02014234349342131
4.456,0.21528990319299274,0.16867783939924474
4.46,0.3525464144655752,0.31781433463782205
4.464,0.6949083817114421,0.5442753205140712
4.468,0.6300043197676569,0.4704719501287022
4.472,0.4117152971525299,0.3621321857220856
4.476,0.4932844986359298,0.2866498863597741
4.48,0.5875425146179134,0.5238850214850383
4.484,0.8061289809823318,0.7416994118486433
4.488,0.7615044356508431,0.6476758278868805
4.492,0.47634675263984044,0.3927317737003962
4.496,0.32510258361211,0.34205842976966594
4.5,0.5814209705069983,0.5183261460734936
4.5040000000000004,0.6952963568809477,0.5610258072444724
4.508,0.6611333138217809,0.49764082590722963
4.5120000000000005,0.2520208861214012,0.24945716736115975
4.516,0.22760314951764368,0.0817078269774865
4.5200000000000005,0.19275687713850528,0.20443457086509695
4.524,0.3756314722874553,0.2817641327336641
4.5280000000000005,0.23253492821855903,0.2003581427578738
4.532,-0.11501983476117322,-0.09147080819963783
4.5360000000000005,-0.23249719761013626,-0.183183411238008
4.54,-0.06421163471690883,-0.013612550985271515
4.5440000000000005,0.14189132209743385,0.05010480226738488
4.548,0.017422266938611493,0.03221820460417421
4.5520000000000005,-0.2508961652691486,-0.13280840140254552
4.556,-0.2735923853183076,-0.1821053243375661
4.5600000000000005,-0.031700527129663425,-0.03982109726345945
4.564,0.19250620616428388,0.2070874448366833
4.5680000000000005,0.2355573947196337,0.16268458318928994
4.572,0.00469385235986107,-0.05275180060642019
4.5760000000000005,0.011914528173250265,-0.09128615156627054
4.58,0.31649972367855256,0.22234162286949055
4.5840000000000005,0.5505185264713482,0.5306442688333076
4.588,0.3726089977711789,0.339559977234555
4.5920000000000005,0.10803326893409548,0.21728438188138738
4.596,0.21444568791902088,0.19197645690849832
4.6000000000000005,0.27158700950899745,0.212642850196831
4.604,0.48889488953876903,0.42034665963465406
4.6080000000000005,0.38169259146377743,0.34579568099196806
4.612,0.2166179853540162,0.17074681595082078
4.616,0.026664655732541592,0.01457034006279672
4.62,0.33380882578139887,0.24944223201437082
4.624,0.4508163549535865,0.38906656978604204
4.628,0.5168107760024322,0.30306491062582946
4.632,0.22849321518284854,0.08724771189922081
4.636,0.14789087739457854,0.11212896623654865
4.64,0.30884930106064656,0.24030830366320102
4.644,0.5188035440496822,0.3913770811391446
4.648,0.4847122820325788,0.3891829401701763
4.652,0.17761444989370181,0.12854263997361687
4.656,0.1478120550266731,0.14834805732853593
4.66,0.2779744032785513,0.2548353743919402
4.664,0.43281430702999113,0.4145938360173018
4.668,0.42452360592073946,0.36521238477560974
4.672,0.2730442844861537,0.09409143861493378
4.676,0.12028020460850947,0.08750111679725238
4.68,0.3220120854195508,0.19164477146637013
4.684,0.5393442951947316,0.3929221444640971
4.688,0.34974292509679494,0.3391073731275773
4.692,0.13827320699034742,0.07530332414871356
4.696,0.16874352769357592,0.02415437585958724
4.7,0.2801985626780297,0.32026203732316805
4.704,0.4837270268686547,0.45186127965114325
4.708,0.3506624817785298,0.3573027153940398
4.712,0.17831324465679027,0.10560119295817408
4.716,0.15117677567461152,0.05717506672542145
4.72,0.29933444401409054,0.2583586224831449
4.724,0.5734229416349464,0.4646961527133364
4.728,0.4695976713496303,0.4066002600773482
4.732,0.17013248037110826,0.13446170709646094
4.736,0.10124066062714221,0.05757090814306755
4.74,0.3620466699525328,0.16479266196696257
4.744,0.43024843939884655,0.3400703477377614
4.748,0.4180414094665497,0.323633954918066
4.752,0.20754118523536103,0.18362383474364297
4.756,0.12404177832464343,0.07393658089513651
4.76,0.30307945497269706,0.2726705895685347
4.764,0.5507773215183287,0.3191940090662527
4.768,0.4964571775600654,0.41145064891284144
4.772,0.2910646177756752,0.1071549044342383
4.776,0.04428888322452093,0.04088062918506849
4.78,0.30179356238181737,0.2648035974283851
4.784,0.5871858368012778,0.3620743888170971
4.788,0.4224792323476328,0.434612319202495
4.792,0.12802366933076215,0.2004323306198491
4.796,0.11403474814304984,0.1355537394952089
4.8,0.41491986908885636,0.1927148663549404
4.804,0.49034155655993134,0.4178533566638283
4.808,0.46344923449446446,0.31586547895971223
4.812,0.12237806185148847,0.14667468276450263
4.816,0.1116856395360186,0.08334387445109762
4.82,0.2566784460494441,0.17136178298052795
4.824,0.4452464567026805,0.4274850241786691
4.828,0.4034144335582817,0.3006365160563837
4.832,0.17877840684955626,0.157160736515677
4.836,0.11200548855838464,0.005070806536249542
4.84,0.2487068978755343,0.16214740847640927
4.844,0.5260340458135155,0.4743709396470854
4.848,0.31051512917737856,0.3601424349115919
4.852,0.11946503193350479,0.16599488667223386
4.856,0.14659403928407896,0.08007290762085743
4.86,0.23229591883396605,0.2608564876520427
4.864,0.4685898928398182,0.3909950193839728
4.868,0.44919252862455267,0.3860825857780353
4.872,0.1049524103398715,0.12514581384802098
4.876,0.08533602802552524,0.09672125629923188
4.88,0.21082245568087218,0.30703558858393454
4.884,0.4859375316849837,0.38843048759223875
4.888,0.343378892390282,0.35189993349420073
4.892,0.269072205004856,0.11982827614464689
4.896,0.08727341450632102,0.07658489635949718
4.9,0.32413311846973375,0.27099282905861316
4.904,0.5178521340927732,0.40023678681817537
4.908,0.36369709898382674,0.323309878893233
4.912,0.19104803385318936,0.12331877089182053
4.916,0.222573977261525,0.06549979725537985
4.92,0.2336745560419115,0.1548229757076211
4.924,0.5524246595675862,0.40923047484075326
4.928,0.4637564373144452,0.338851031008706
4.932,0.2741009475773192,0.1293784355211775
4.936,0.10419417521310322,0.06315091893756156
4.94,0.21598221097810089,0.21561214476975102
4.944,0.565006926577889,0.5106847105499963
4.948,0.34820169524093947,0.3467929241108282
4.952,-0.05974988171803568,-0.030887195663499685
4.956,-0.04828698087760172,-0.1666027931902032
4.96,0.021264032731391942,0.06422354463627197
4.964,0.2190883523157796,0.22482826354270566
4.968,0.22614490525394723,0.1529642169298
4.972,0.06893417140486985,0.09986932243080329
4.976,0.08328581109774985,0.06830465828834618
4.98,0.26675150074102727,0.28504323523655656
4.984,0.6102921471388705,0.5353727533245488
4.988,0.7093453190716725,0.5531147517233245
4.992,0.5168046512633129,0.3187835420406265
4.996,0.3632755865647462,0.24567122419080173
5.0,0.47113390108351944,0.3238549985020371
5.0040000000000004,0.5448293141877787,0.47529062428619434
5.008,0.44121357490920987,0.35104545939889903
5.0120000000000005,0.09689379877695416,0.09093728893044958
5.016,0.0531763977238896,-0.0686817554445445
5.0200000000000005,0.1492090678962372,0.035749100028240534
5.024,0.12265434208363139,0.22025338709235878
5.0280000000000005,0.17477111364622205,0.15149212216621857
5.032,0.05214396811676217,7.510007404512749e-05
5.0360000000000005,0.10779481596039114,-0.030731423115237178
5.04,0.24399879064721333,0.2974418087906294
5.0440000000000005,0.49364705635159906,0.39316895607268076
5.048,0.45273605535179995,0.3542460395291862
5.0520000000000005,0.22063163166658475,0.14438428463625835
5.056,0.19041735501110774,0.014876007313677733
5.0600000000000005,0.29411701665545514,0.24922914890603862
5.064,0.46159417284922283,0.4101307444919086
5.0680000000000005,0.424671273772991,0.3221849641952801
5.072,0.24988477797987374,0.15945836775406524
5.0760000000000005,0.15471512045659108,0.09248673781086364
5.08,0.35069258943323534,0.26634604506949777
5.0840000000000005,0.39693749093458647,0.39990496692259186
5.088,0.46996253856082154,0.3182136798933694
5.0920000000000005,0.17477266888309714,0.07968936365068072
5.096,0.023847394914391223,-0.02475213255823873
5.1000000000000005,0.2497496909962003,0.22321132799913387
5.104,0.46194389754107656,0.41851514998931105
5.1080000000000005,0.4529415750564393,0.3363967465764844
5.112,0.2743561328474363,0.1556317158721629
5.1160000000000005,-0.7991076272290669,-0.6578057427444539
5.12,-1.0180005087057071,-0.9074077343552223
5.124,-0.9368160331335087,-0.7405093876038833
5.128,-0.4206245899684925,-0.37181656084845555
5.132,0.05971594313023667,0.054895193882490805
5.136,0.8274587067622658,0.6621871179157942
5.14,1.6492594139798127,1.241706988041718
5.144,1.9555233217812031,1.633169812333729
5.148,1.4865897111335609,1.1790894174277986
5.152,0.43273697005533796,0.35226968004731124
5.156,-0.4359425165605642,-0.43704283685131995
5.16,-0.9747320416059958,-0.712889172666231
5.164,-0.99924820212613,-0.8053969239493628
5.168,-0.7642946180485205,-0.6346823836088817
5.172,-0.37376637547805225,-0.2879571058110687
5.176,0.1477789863565338,0.09063152394237187
5.18,0.3508064062438746,0.2534854429777506
5.184,0.4065917056576359,0.4449929617217465
5.188,0.38966170212240814,0.34648106822479474
5.192,0.13722122960068264,0.07757122544153844
5.196,0.09204282954878358,0.11791291388345124
5.2,0.33288354932328307,0.2375292754952905
5.204,0.5060872599466381,0.4015858883615411
5.208,0.5053900462865306,0.3001174539597051
5.212,0.1671118317178654,0.11659638687786028
5.216,0.055237938433791274,0.03909243473543014
5.22,0.25408076103787286,0.14938352130756108
5.224,0.4652251553519775,0.4340069567789277
5.228,0.33863765756315645,0.3650726425512342
5.232,0.16046442934649652,0.1287184732531196
5.236,0.12223401468894605,0.05099973345459148
5.24,0.2927788427806697,0.30434891525953733
5.244,0.5575257081620931,0.467547529826686
5.248,0.4732129670711356,0.320943158628611
5.252,0.09760432600996077,-0.011557043762098082
5.256,-0.037282654735734874,-0.04499528214575187
5.26,0.05480604257519604,0.11168061368927618
5.264,0.2516651856697182,0.2321051714888851
5.268,0.11512352069004125,0.09671838171105668
5.272,-0.21119395053385942,-0.10396949247251434
5.276,-0.20852409967702373,-0.18975161038392208
5.28,-0.022330277506673275,-0.02653529365720697
5.284,0.18633913109129677,0.14505573042170194
5.288,0.06307993520920055,0.10333004270752494
5.292,-0.09967326168643642,-0.005309796274244702
5.296,-0.22086172116327407,-0.2145491095594238
5.3,0.1292977227292599,0.05706053817458993
5.304,0.4082324111391706,0.32260113079640035
5.308,0.31807529032861087,0.3216925839582778
5.312,0.18863926958708885,0.07846393467978698
5.316,0.14786817888882098,0.121573785249921
5.32,0.38263574198911976,0.3667271999150079
5.324,0.7623277948647171,0.602901884853542
5.328,0.6952297859131588,0.5567455819812677
5.332,0.5182283214406951,0.41557634473874583
5.336,0.35727516780308505,0.34229880937317225
5.34,0.626317552610469,0.4712110802713383
5.344,0.7766907214703405,0.7976712958964266
5.348,0.7950093628258738,0.6371261980300766
5.352,0.48565844071304237,0.3575869510200841
5.356,0.38286080027199904,0.33775710710116863
5.36,0.5648067460193675,0.39548394759295635
5.364,0.7360371494900041,0.5874051829240867
5.368,0.5266673845762345,0.4437794751443962
5.372,0.19584072524953483,0.1251782132740349
5.376,0.08191476240671348,0.018568799998896365
5.38,0.24097672659172056,0.14875444071876986
5.384,0.3317544044838333,0.24051102256560153
5.388,0.20356247649356474,0.1025058644590896
5.392,-0.1675987183468146,-0.1766369923440956
5.396,-0.15270790015468175,-0.23037769183984805
5.4,-0.14192134384193436,-0.07707739553193226
5.404,0.18225485050821924,0.09508791483855801
5.408,0.08053251928246649,0.07678098701779443
5.412,-0.18531864122711317,-0.18416194588072393
5.416,-0.17355068043950306,-0.19576153128649243
5.42,0.12406055078738493,-0.004391910339675413
5.424,0.2923846091199295,0.18576728939650383
5.428,0.27532700025527773,0.21032071564862825
5.432,0.10458068890529235,0.09146048941066148
5.436,0.07707011499335031,0.08210190589675671
5.44,0.2634514596107784,0.26443773528014425
5.444,0.4190878031261936,0.4111800642848504
5.448,0.2962115785971561,0.3289453875765925
5.452,0.22535862681669816,0.148220692357757
5.456,0.06617415637084681,0.08303000864204788
5.46,0.2927720270561779,0.2591272330353984
5.464,0.4845120663829991,0.43746556361665495
5.468,0.41384104532836535,0.3370877795309911
5.472,0.18127782807234605,0.22985518896050183
5.476,0.13938158577858262,0.05504224627729874
5.48,0.22489755493597874,0.2276698190588517
5.484,0.4226526945108732,0.32110002597563764
5.488,0.4427573927230579,0.3594013926944804
5.492,0.14460599922987644,0.1304005480974774
5.496,0.08587619199151032,0.0987941423288214
5.5,0.306525555047004,0.2462249158642763
5.5040000000000004,0.49379833063981815,0.446635725363996
5.508,0.34720961237923964,0.29434302341100654
5.5120000000000005,0.22045329646772605,0.1309403630913344
5.516,0.027254732508580237,0.053914963709144254
5.5200000000000005,0.1993992216683303,0.2075688140529893
5.524,0.5079011978311013,0.3923170326295507
5.5280000000000005,0.41837678984324295,0.35422454418968646
5.532,0.07291044692062736,0.12705217558937765
5.5360000000000005,0.09765987753508522,0.000936866681932616
5.54,0.24460523469131698,0.26557814566036536
5.5440000000000005,0.5165280747139922,0.3789607840962844
5.548,0.48380025516988534,0.3246092646115705
5.5520000000000005,0.12358440623415459,0.15836707864692506
5.556,-0.018103752403073645,0.09031633330589939
5.5600000000000005,0.2803207767135312,0.22896510375490092
5.564,0.47359056689689033,0.4468125352235551
5.5680000000000005,0.46673140192897977,0.30705137458243287
5.572,0.11450995191584748,0.11540759712385362
5.5760000000000005,0.130208747290381,0.033310647621309586
5.58,0.2687602424338801,0.23415437017998014
5.5840000000000005,0.48358584747310795,0.4280460133823252
5.588,0.4019063965651558,0.39114187192178257
5.5920000000000005,0.1811509415192219,0.15614548125264568
5.596,0.09194063686430617,0.13102442601668446
5.6000000000000005,0.29501617222887344,0.22750231051647202
5.604,0.45208942808436203,0.38753473182081877
5.6080000000000005,0.3109566436371428,0.3584170270345898
5.612,0.20881679537456738,0.11890548326880476
5.6160000000000005,0.10147102656266575,0.043257577963472627
5.62,0.30567840633056037,0.2579893022465473
5.6240000000000006,0.46891437647380935,0.385829332784952
5.628,0.3586388581352962,0.37884798468706843
5.632,0.21203147400263966,0.08115670042183894
5.636,0.11999219729743926,0.012026108192161773
5.64,0.27983889004250745,0.2380087351892479
5.644,0.47241883228670556,0.4457078375498844
5.648,0.4160101362790185,0.35375325075384756
5.652,0.1394806914820259,0.15903149759540333
5.656,0.1161480497937939,0.12499677032279105
5.66,0.23410617764263547,0.2272949215185131
5.664,0.3788344979877148,0.40078374604195155
5.668,0.4506315242350219,0.31274320793631133
5.672,0.17781337779108755,0.17331757131622716
5.676,0.0855360911319393,0.04779407666581423
5.68,0.29245357339832495,0.24232461364676128
5.684,0.4871668270483539,0.28613026301335576
5.688,0.4322017672216027,0.3090071298696546
5.692,0.15006099641727513,0.17359058634297633
5.696,0.07118593302337343,0.10126473373706853
5.7,0.29741100418206434,0.2043591283850961
5.704,0.5041855412637788,0.4040607966936665
5.708,0.46319265550969674,0.39454891873106607
5.712,0.13728411917425107,0.173372878706258
5.716,0.13314174854400912,0.07526921734875776
5.72,0.2786539025635091,0.27033025538274247
5.724,0.47680451083060416,0.4157597441755693
5.728,0.39057138141013303,0.3628290254520805
5.732,0.14018140414855038,0.14145834377679808
5.736,0.13548005267264812,0.03098074824483326
5.74,0.31220115475016874,0.2284161641265213
5.744,0.4829024343359916,0.3767150232965589
5.748,0.34310146098588623,0.32214918839208123
5.752,0.1688572108140359,0.08128642853234014
5.756,0.18032508123489524,0.11559266241527576
5.76,0.3631245597834267,0.270514027971853
5.764,0.5183024576188342,0.40623217679144685
5.768,0.39359049120795736,0.27797754847884537
5.772,0.21058746257651526,0.14942051007425866
5.776,-0.0024053238169337438,0.016192996187450653
5.78,0.27268541132740415,0.20534501695591786
5.784,0.43366275160779416,0.41794635196730884
5.788,0.48905841592118476,0.37558364744941436
5.792,0.14825724590423756,0.17113770598610972
5.796,0.09156197174329718,0.027244144263505438
5.8,0.280498617111049,0.2726038454912073
5.804,0.5132437778649959,0.3655797237287888
5.808,0.3173642735449592,0.20320257442789763
5.812,-0.040325903589038835,-0.03724504361025781
5.816,-0.15267770441201242,-0.1604712656262846
5.82,-0.062193901607195,0.05926053899726892
5.824,0.3107478153518739,0.24490694015481412
5.828,0.32139255690514,0.21752019547263046
5.832,0.14346022720548623,0.15445660793946636
5.836,0.14082271077467487,0.0691017587070544
5.84,0.4728447719549185,0.27299564061619386
5.844,0.72275615877236,0.5575326500785884
5.848,0.783667661430201,0.542503603059266
5.852,0.378247321363026,0.30651990517944694
5.856,0.26968736467495574,0.2184270348096784
5.86,0.4488303410649096,0.28845687240752743
5.864,0.5503641540596733,0.4340515933123566
5.868,0.35552212419358287,0.27856522230893405
5.872,0.07116325732586341,0.030746123590145027
5.876,-0.090121696051259,-0.08193532138781913
5.88,0.06339521377346981,0.02375483449489485
5.884,0.2452979669555209,0.25728419871637764
5.888,0.2852427778316626,0.16282666815996405
5.892,0.002399946333185722,0.023512509090050576
5.896,0.1265866948962534,-0.014487102534267791
5.9,0.31081970463794234,0.2453475237722561
5.904,0.5900954575765539,0.3783882031934537
5.908,0.39295374612334777,0.3366280531585413
5.912,0.1998708451235664,0.087191148128408
5.916,0.08610159839959222,0.053089974582408446
5.92,0.30682495538999777,0.22168988856070826
5.924,0.47797750781456294,0.4401591626834772
5.928,0.4969703015850644,0.33809791729962274
5.932,0.15440488956348009,0.12163565906860616
5.936,0.059903540778451454,0.05884839756956906
5.94,0.312487516082189,0.23048262524618454
5.944,0.5265383068339606,0.46240391484527665
5.948,0.285250511648332,0.2896728351440512
5.952,0.08589579002455613,0.0780933444994734
5.956,0.11976760594774621,0.11038904972725458
5.96,0.17831118190499629,0.19132036487134685
5.964,0.34586878350668326,0.36809003420659303
5.968,0.46778381431483346,0.2392470931267261
5.972,-0.5463851070835983,-0.4935304227786573
5.976,-1.2994334000671206,-1.0055364729576972
5.98,-1.1646017024781206,-0.9434038088524436
5.984,-0.6193511838803646,-0.48421368431909007
5.988,0.10683811649631146,0.0556085344863683
5.992,0.7269841283339644,0.50144113426664
5.996,1.378809507610601,1.0193832775400622
6.0,1.7477183717868057,1.4306936022040455
6.0040000000000004,1.8184583903287745,1.4385868449844585
6.008,0.9012157681377032,0.6744637513711331
6.0120000000000005,-0.1922821514847708,-0.13463297195572657
6.016,-0.9752955078950221,-0.8505166627602547
6.0200000000000005,-1.229781355639186,-1.0136402041192925
6.024,-0.9926768052599224,-0.665475744756802
6.0280000000000005,-0.35558626171828545,-0.204362881319729
6.032,0.177336409127764,0.0887525880565395
6.0360000000000005,0.16679587191263984,0.11477216497230508
6.04,0.2792130643320524,0.24586292513618746
6.0440000000000005,0.3680825138092769,0.4053479951464578
6.048,0.40667531371726684,0.3750317408028002
6.0520000000000005,0.17316477125209856,0.11155419003079525
6.056,0.0130223898597671,-0.0012765684294254592
6.0600000000000005,0.3294363059333006,0.21838349996555723
6.064,0.47971784697255754,0.4388239552048131
6.0680000000000005,0.42012834450283343,0.3382641976764473
6.072,0.16026132967170834,0.1325072402290714
6.0760000000000005,0.18438898897020983,0.10778885846147017
6.08,0.2480975228748322,0.18394428705485866
6.0840000000000005,0.42651011435210484,0.4536265305229245
6.088,0.4620987000570423,0.3523252553475088
6.0920000000000005,0.1693906934819078,0.13759937077180215
6.096,0.1979638546018328,0.023170619518620615
6.1000000000000005,0.23629111132513703,0.2510715757728398
6.104,0.4161683995213319,0.3616603620370899
6.1080000000000005,0.4046349581324654,0.2912488944633608
6.112,0.09185551543068263,-0.005860689247224278
6.1160000000000005,-0.1479335736479156,-0.0887063026692192
6.12,0.06267141923234168,0.010994118028963877
6.1240000000000006,0.21797536941218337,0.16942516096864849
6.128,-0.02084573321825184,0.05173729746415537
6.132000000000001,-0.15682600113876755,-0.1850902232760578
6.136,-0.30076067963021685,-0.22247135423738804
6.140000000000001,-0.053502825032393696,-0.00932184632244143
6.144,0.09353066270123576,0.14028921777890968
6.148,0.14658904452016425,0.0746432452865359
6.152,0.002217044711477434,-0.09572606860892353
6.156,-0.11574550238339626,-0.06954189445222171
6.16,0.21643107749367796,0.20940806889984728
6.164,0.4670995931305364,0.3670133707651547
6.168,0.4311629699860602,0.2761448510116348
6.172,0.21062928022541624,0.1719187135397503
6.176,0.264749888148847,0.14350250081340826
6.18,0.37350241713012444,0.40455805910612386
6.184,0.651670229585,0.5730075308972683
6.188,0.6574066086693824,0.576661842168791
6.192,0.4041342454428992,0.4165206715114416
6.196,0.4892169967451288,0.3488049177229995
6.2,0.6297658548622227,0.5139967381214035
6.204,0.8120817383195118,0.7117196072615364
6.208,0.7124969442557345,0.6102547259058345
6.212,0.4803662070290121,0.3518751737105819
6.216,0.391859667549988,0.3095446563812138
6.22,0.42994208901841124,0.4075745179033091
6.224,0.5417935927508589,0.511498913993006
6.228,0.4925658575416051,0.38479788757131916
6.232,0.0761063369847349,0.11331268540252132
6.236,0.061586370280117535,-0.01786048643186988
6.24,0.2517293075143307,0.15402806688636012
6.244,0.16043866028595305,0.23076982801996382
6.248,0.2119762132082873,0.052817100194179824
6.252,-0.18495599307894717,-0.19589573441004893
6.256,-0.28779231729357235,-0.3040905653625604
6.26,0.002813116160713197,-0.019674482534102408
6.264,0.06331480244526774,0.026863113423610988
6.268,0.04139244672337013,-0.037101569274462176
6.272,-0.23159715672130887,-0.15787834240210546
6.276,-0.1129316868867341,-0.15077330268936073
6.28,0.047899346512342955,0.05385377871391084
6.284,0.27816625528560496,0.1912542686074547
6.288,0.34962648170046423,0.22368363806925648
6.292,0.04722119858413572,0.13495158997673778
6.296,0.08163792322665825,0.10381302449923516
6.3,0.23071638354652288,0.24462894416243128
6.304,0.4462981473393209,0.3462158598569374
6.308,0.42958415691202867,0.3131414595039557
6.312,0.06960825140586406,0.09326619069033666
6.316,0.05455640814849773,0.1303139214635923
6.32,0.2620457673392303,0.22335627549845186
6.324,0.44767374418248146,0.37906720825556756
6.328,0.3823125139158752,0.3380589312145906
6.332,0.11124031639445159,0.07327850844923339
6.336,0.0809017091433273,0.05508513712545658
6.34,0.2641079239285291,0.2227734923048668
6.344,0.4653344551043226,0.37602509933306305
6.348,0.43620224351063863,0.3298392088025852
6.352,0.142032357673757,0.10563353952087984
6.356,0.1495254558774476,0.11705525954436848
6.36,0.26073054176471994,0.22397420617073652
6.364,0.5487781228089793,0.325456158368025
6.368,0.41348516639613037,0.3730526308132987
6.372,0.07977080484251015,0.13098582228188976
6.376,0.14694311859800513,0.04439897890504042
6.38,0.26162615835160924,0.21126839796338362
6.384,0.5347520292926208,0.3861110771775848
6.388,0.3835310393451574,0.369063649152523
6.392,0.16080263783690169,0.13000705102265164
6.396,0.1119681366768821,0.0755509172822547
6.4,0.33665726840671345,0.21052029948382997
6.404,0.4724260882273199,0.42919253700411425
6.408,0.35138366996519915,0.290545936311296
6.412,0.17798694978791377,0.10703024600088532
6.416,0.07345041482100874,0.08687002846303221
6.42,0.28469109493354555,0.1952651016800601
6.424,0.495891219239176,0.37358292601075516
6.428,0.3776744630803323,0.30682096678836857
6.432,0.2091028114757714,0.13793723570122532
6.436,0.054468002457130314,0.08367305488693273
6.44,0.31082250343293555,0.2050788377925906
6.444,0.48213350394283283,0.4805666449137602
6.448,0.4045042213487475,0.28043757625233556
6.452,0.13820100177305955,0.0526239066371749
6.456,0.07984960957830117,0.06298045963503696
6.46,0.18398802729977048,0.2856551653532617
6.464,0.4512850267707172,0.3493197133104578
6.468,0.3803151385895166,0.27331830649380734
6.472,0.1011333207574504,0.11345434698681266
6.476,0.009736203474659144,0.09624772864652886
6.48,0.2924503608345915,0.1601319954787775
6.484,0.3899566598470494,0.35315033503409693
6.488,0.36385690623760275,0.31180541837537057
6.492,0.02772655275486413,0.15161755429196203
6.496,0.14185758244269986,0.0339352956648063
6.5,0.2246977547423489,0.2870293557913278
6.5040000000000004,0.4481663163754227,0.4323379017239011
6.508,0.3163570428935917,0.35076202331150147
6.5120000000000005,0.1092943518030051,0.13405916477600172
6.516,-0.02291471217644489,0.01620268694602812
6.5200000000000005,0.31678683778407557,0.17030333464686362
6.524,0.41826521045894605,0.3808110264261657
6.5280000000000005,0.29095048145151736,0.32971528184064286
6.532,0.13165740761132255,0.08507123440983418
6.5360000000000005,0.09233929107923897,0.09845786750615627
6.54,0.26349063999657646,0.21584522362013872
6.5440000000000005,0.4667149406511067,0.3656138748594756
6.548,0.33171760051750027,0.33732808076043425
6.5520000000000005,0.09848626703820504,0.10214237046393677
6.556,0.004768843325128627,0.1118546168646893
6.5600000000000005,0.20785511329511056,0.23428533058033074
6.564,0.4848563108425262,0.3279747470800149
6.5680000000000005,0.4106933608508607,0.3407687691740325
6.572,0.1996680095510118,0.1184296680255181
6.5760000000000005,0.18704527117646516,0.05385939177415411
6.58,0.26834394255777,0.19035011110100825
6.5840000000000005,0.5591193684716544,0.4054621207537446
6.588,0.3252629489109615,0.2787303660562718
6.5920000000000005,0.11375464016923095,0.09235227381229977
6.596,0.04767961841771744,0.09613333445737654
6.6000000000000005,0.2632868286259127,0.21093511387727967
6.604,0.5028101175312397,0.37891715455173763
6.6080000000000005,0.4049121682526773,0.3321851583473908
6.612,0.12849123418656203,0.0666782912121164
6.6160000000000005,0.08493855579640368,-0.03309913080326947
6.62,0.2917792610492583,0.21568016290104777
6.6240000000000006,0.5039793993807993,0.37815002243345586
6.628,0.33372948175903944,0.2450648278371837
6.632000000000001,0.16724677696276646,0.10634374286462533
6.636,0.003285239238584564,0.035094162156360235
6.640000000000001,0.19790799075609827,0.20722162910156425
6.644,0.4695088044776574,0.4104375951827085
6.648000000000001,0.41949722877224976,0.31032477602775843
6.652,0.13268787389737355,0.08467379841280573
6.656000000000001,0.11394390693720978,0.046290822428167
6.66,0.2687740363618423,0.263231459150008
6.664,0.3021817476704494,0.24397128101275767
6.668,0.2607216902976138,0.16523908054727554
6.672,-0.03643852014546362,-0.06901477942815161
6.676,-0.1971628277502058,-0.20789906961213342
6.68,0.09064340600381757,0.0011257856866988755
6.684,0.31932042648690334,0.20263344744150708
6.688,0.3657726372729882,0.19715314873954884
6.692,0.21210778791390852,0.08695576474602354
6.696,0.21419021544087236,0.151583877102383
6.7,0.42206699951511617,0.36104345369351526
6.704,0.7319543623584042,0.6058161082045826
6.708,0.5421585623653501,0.5090124929039498
6.712,0.3306700708157657,0.3176015371364993
6.716,0.1126710825170959,0.12261949147893161
6.72,0.27042728616653067,0.25651815404015293
6.724,0.43947882637612573,0.3464890067140689
6.728,0.1842552039899774,0.22695524910064754
6.732,-0.02864968574038519,-0.06628152174297612
6.736,-0.24558693855145436,-0.1913319040576209
6.74,0.10844767830307617,0.09365150664710495
6.744,0.252163624864388,0.19404307068095888
6.748,0.2806834502127908,0.21970537039291896
6.752,0.006267517848699028,0.05988214583519166
6.756,0.08010792383560547,0.05629288015808728
6.76,0.1801574831996004,0.24860475492838174
6.764,0.48241803327076654,0.3653423649946874
6.768,0.2864830115679739,0.33938679608978967
6.772,0.2001314128698834,0.14534550762553522
6.776,0.028767650675699995,0.03726070619684485
6.78,0.36616409497962527,0.13737924792728798
6.784,0.3891107720835393,0.40540184572807814
6.788,0.3940719013758197,0.2629007657431341
6.792,0.09012533043172366,0.1049209157823041
6.796,0.06031819828554745,0.07472355385141821
6.8,0.17510242365958006,0.1850377417162769
6.804,0.43577576527867873,0.3535383304172397
6.808,0.4161698975376072,0.3129492654577221
6.812,0.1290505163311109,0.05216972611755726
6.816,0.11756597205200686,0.09888631845913755
6.82,0.22929980742727177,0.20030700336663704
6.824,0.44134931892445073,0.4108028247366243
6.828,-0.08914101826183782,-0.10292262377002961
6.832,-1.0867117143929113,-0.8954189256351386
6.836,-1.4554701496559481,-1.1777668673483062
6.84,-1.022133890390448,-0.7564128117756599
6.844,-0.002530029760306085,-0.1052815834370802
6.848,0.5560123369508763,0.49050938399610533
6.852,1.22643208532956,0.9941416824751703
6.856,1.532300434187768,1.2279661572817149
6.86,1.5849743693685905,1.251839025842128
6.864,1.254343413586834,1.0095512802775322
6.868,0.3361972877847459,0.3164011768932142
6.872,-0.7286166820564292,-0.6287442601435621
6.876,-1.4624762836861667,-1.111086191221115
6.88,-1.2480296297080415,-0.9602051304996909
6.884,-0.4823945229808177,-0.37326627455673467
6.888,0.3338925973346453,0.36457766403106806
6.892,0.11838098936373728,0.0705085276639005
6.896,0.048943860013845736,0.03662486398129998
6.9,0.2923310007320333,0.2426714529819632
6.904,0.4709576258168825,0.35451536244889764
6.908,0.40027155219856825,0.3049321697632296
6.912,0.17594389756053508,0.01668642598728462
6.916,0.010239666527732463,-0.0425171788073557
6.92,0.28323841339920286,0.21272259133462104
6.924,0.392688016437562,0.3707829718231081
6.928,0.34489041554304944,0.2794970671292243
6.932,0.09895749009826649,0.058107784957710136
6.936,0.07164536946618479,0.06946709611392059
6.94,0.24802140929012795,0.2351655411602639
6.944,0.41618699679302806,0.4203372963254294
6.948,0.3832754363691756,0.3222670780068724
6.952,0.15383522785900605,0.12483058230948693
6.956,-0.03908709106879921,-0.04736526585588119
6.96,0.323565314603089,0.2002263331273904
6.964,0.4187000758951371,0.3562569544585342
6.968,0.39324162078133834,0.2823874152658942
6.972,-0.003805311267772008,-0.021785125470458612
6.976,-0.14730103593071944,-0.21097751348853025
6.98,-0.0282310844118098,-0.04950975950167833
6.984,0.1029503767910378,0.09565773196284286
6.988,0.01146190576527362,0.05432683807461105
6.992,-0.23502564153886032,-0.2044386582300216
6.996,-0.26090028098537166,-0.3112240250138406
7.0,-0.061677246127931754,-0.12080838090141852
7.0040000000000004,0.07036195596277148,0.12251562207929925
7.008,0.09801684194421979,0.05686858610954338
7.0120000000000005,-0.20207718190585455,-0.07806275308620336
7.016,-0.11592905690600455,-0.10796742788603733
7.0200000000000005,0.11391955816776345,0.17297905175447315
7.024,0.46818346866180477,0.3492768421382296
7.0280000000000005,0.522804550092213,0.38252521296304953
7.032,0.22602535199305027,0.22635938739510303
7.0360000000000005,0.2647290198863315,0.19140817385256387
7.04,0.5030647136885474,0.44572537198317413
7.0440000000000005,0.6986958083844105,0.6240656428097274
7.048,0.6832627910727395,0.5744252781757202
7.0520000000000005,0.4573519340058,0.3063428946191661
7.056,0.3734986721124473,0.28963228817726383
7.0600000000000005,0.6654566882126345,0.47672133236472025
7.064,0.7856293122870657,0.6202471270584645
7.0680000000000005,0.6896414927934548,0.5792465618395843
7.072,0.35558924020363303,0.3744723578679988
7.0760000000000005,0.2503580260072556,0.15799333978873192
7.08,0.3243116567007718,0.32220221047621417
7.0840000000000005,0.4154897191559673,0.49916630384659083
7.088,0.34703415587465297,0.31955140326122505
7.0920000000000005,-0.030734652616459787,0.08273016324427351
7.096,-0.04754189243417467,-0.10945226175663635
7.1000000000000005,-0.03288205797616636,-0.017485757709129038
7.104,0.23585631899075932,0.1916547255764134
7.1080000000000005,0.019559597313806958,0.12164282759206045
7.112,-0.23499930399888935,-0.21283592732254203
7.1160000000000005,-0.3796243084670375,-0.3039402421060557
7.12,0.04629015985610062,-0.09434375359961567
7.1240000000000006,0.05393078010717152,0.05677652266363423
7.128,0.14421750663359156,0.011372885416059048
7.132000000000001,-0.22798619616870272,-0.06989587619943162
7.136,-0.16711318367313865,-0.17905055147550872
7.140000000000001,-0.059177806397709316,0.10083662607994748
7.144,0.22021538979494587,0.24865413889958643
7.148000000000001,0.33105372270297095,0.2623770584083411
7.152,0.15525044451035092,0.14209869608457742
7.156000000000001,0.04219431836288681,0.07946820717375307
7.16,0.23751433114106715,0.20775043285267586
7.164000000000001,0.5065732786520931,0.3157270897444677
7.168,0.374465823064477,0.29373618490791775
7.172,0.0926865879274766,0.05951581381794161
7.176,0.08266479832994941,0.029378822599403966
7.18,0.2631486363515802,0.10718831057873145
7.184,0.38993050972528137,0.3310436852934065
7.188,0.3134147866662057,0.2771672639353809
7.192,0.11837213112928727,0.09649857375829451
7.196,0.04078119251640858,0.046540264564649624
7.2,0.2767536681256335,0.22209000811877566
7.204,0.3919509476954307,0.3380229317951896
7.208,0.35946112055013785,0.31935668377100646
7.212,0.18704360828556327,0.005658014479489118
7.216,0.029266545025864205,-0.10172315341715699
7.22,0.19013039633304402,0.21494409661908914
7.224,0.4924335004270624,0.32183193957838574
7.228,0.4037549956832502,0.25781585454467465
7.232,0.14693966021244229,0.042310192519036324
7.236,0.0022794408755861598,-0.02309786892676493
7.24,0.204709725448136,0.14944404482005674
7.244,0.44248793850885626,0.3674904959765202
7.248,0.2824441041473315,0.2554603722053119
7.252,0.15948359078075455,0.03156951816981811
7.256,-0.0018854362609003195,-0.001608289011095965
7.26,0.1748907984842399,0.16794108048348858
7.264,0.4623074674152046,0.3490711153843278
7.268,0.2951920257494096,0.2593192583979485
7.272,0.12949108096379858,0.1059620365330802
7.276,0.06687027218845755,-0.029899320330340727
7.28,0.171019927984626,0.20936518971940551
7.284,0.35873022242902264,0.3533326787482276
7.288,0.3608056961615781,0.3312621468254035
7.292,0.06029160717821301,0.08646755005319902
7.296,0.04249314452665135,0.026141462804547072
7.3,0.1453335593846629,0.12636794294611298
7.304,0.3080059123163702,0.2539328530879573
7.308,0.36451974988064584,0.21752548531675703
7.312,0.08310916955345332,0.07386714950949567
7.316,0.06339350301150906,-0.04306271210666363
7.32,0.23407923629349622,0.18558145086424835
7.324,0.3348011355816814,0.3540070224713047
7.328,0.320613109143214,0.2834285624799274
7.332,0.1218632585639171,0.09400571057524756
7.336,0.06956296366800217,0.031224997551550046
7.34,0.23165952049532226,0.09608226266436025
7.344,0.3937497907263712,0.36022636036481986
7.348,0.3547239677806307,0.23369955014530597
7.352,0.18536853878714307,0.09748669271917429
7.356,-0.01309443390309261,0.0363098829258716
7.36,0.2834107706528045,0.18886039379413205
7.364,0.4114878938300759,0.33738558789732526
7.368,0.4034407931488705,0.24866964986321993
7.372,0.11220382747224851,0.04377882719209586
7.376,0.0004126333313446001,-0.02061112107377968
7.38,0.2694722877737884,0.205138284616195
7.384,0.47078047777883203,0.30041723485110783
7.388,0.2690163868076214,0.25281044794281704
7.392,0.06987086566861239,0.06930522274115566
7.396,0.05853768633554482,0.02281776473524792
7.4,0.24232174319444505,0.18872803284314432
7.404,0.3862415311459687,0.3740218619649995
7.408,0.36963081982990925,0.24662662671236535
7.412,0.12578663497463832,0.08877931027059821
7.416,0.019792387857462262,-0.02991675615450899
7.42,0.1949690412770944,0.18026314826840364
7.424,0.47992492338541315,0.27230325957643076
7.428,0.31240057284392186,0.2301323969009644
7.432,0.15049305142612562,0.14072558934960486
7.436,0.14478660902280874,0.01812868824976617
7.44,0.19961323760685973,0.1716991523263045
7.444,0.46025354422354203,0.310342848531089
7.448,0.33490814793779117,0.3140348605531448
7.452,0.02822244533269154,0.048689707761762194
7.456,-0.02488001145459856,-0.054168427148152086
7.46,0.1351564426593389,0.19939740918342044
7.464,0.4027406710940823,0.35947445468126465
7.468,0.3141322791475189,0.21806428470163106
7.472,0.08701563626905176,0.049266634502841036
7.476,-0.004520247430235304,0.02721877053581796
7.48,0.18777356817962113,0.1331685631582647
7.484,0.3952160915007716,0.34764195757857286
7.488,0.31022991809088296,0.23968808499770713
7.492,0.1392458457479579,0.08269218919980369
7.496,0.013548678768691601,0.052592075511983825
7.5,0.2228373564588932,0.174321249376399
7.5040000000000004,0.4254699137651142,0.352499050028474
7.508,0.29467774623729664,0.2352189538459005
7.5120000000000005,-0.017116792628397354,0.07747844915734958
7.516,0.06875803682485787,0.030166484426001762
7.5200000000000005,0.13825668844448377,0.05239034786393512
7.524,0.17753432992470713,0.18103308372848032
7.5280000000000005,0.02532397991945473,0.10353373056124031
7.532,-0.09332990318998173,-0.16192362750705747
7.5360000000000005,-0.20010694724243544,-0.19828043212086927
7.54,0.04776199534823326,0.03023243861566627
7.5440000000000005,0.2423776321286656,0.29093666141150376
7.548,0.28044286998148416,0.2090526882016678
7.5520000000000005,0.13806367679556175,0.14876593537973476
7.556,0.13041676568038235,0.15900640905924848
7.5600000000000005,0.4642864188430378,0.3506017220810174
7.564,0.7087048919890554,0.569642457968371
7.5680000000000005,0.5414351022705386,0.4916264076163236
7.572,0.24302708081525504,0.2662903492207755
7.5760000000000005,0.08308790660668872,0.08377960457729204
7.58,0.17449759396699605,0.11585913536555507
7.5840000000000005,0.30110921166974774,0.20351258025461882
7.588,0.12678259161716382,0.1317891242807493
7.5920000000000005,-0.15996175114235825,-0.12049329294807268
7.596,-0.19911156544232464,-0.2011869579142531
7.6000000000000005,-0.10490342085819593,0.03419551223329895
7.604,0.21036516940173108,0.1519259287406923
7.6080000000000005,0.21564488801654258,0.18424586174910684
7.612,0.07190327090924528,0.005026692412371414
7.6160000000000005,-0.07789988658999729,-0.035948851396532894
7.62,0.11169466514876562,0.1761474047922954
7.6240000000000006,0.4129682430062589,0.30431529709032484
7.628,0.31992361048065043,0.27454166845819783
7.632000000000001,0.12906796013173574,0.09659043844066446
7.636,0.0505768670170024,-0.041210822871050184
7.640000000000001,0.12177070377863597,0.1275688805044881
7.644,0.2618559706046478,0.33477977627467104
7.648000000000001,0.29624048221443516,0.2568362592523065
7.652,0.07781123574014258,0.02361739146212833
7.656000000000001,-0.027000591709274976,0.047627303385845796
7.66,0.20090993855467465,0.14402614824312784
7.664000000000001,0.3872928833873772,0.3485777595024033
7.668,0.32006263021759523,0.2470461526648957
7.672000000000001,0.14787829454147305,0.0735596001072444
7.676,-0.007026280637555744,0.040851198319873994
7.68,0.22134850109693893,0.1817631007712382
7.684,0.39447310468177627,0.21269835427271297
7.688,-0.702031593455062,-0.587752518065962
7.692,-1.4032076458298153,-1.1195668876865184
7.696,-1.3194593810867221,-1.13099438503499
7.7,-0.7070806874949767,-0.4772996522244605
7.704,0.443657259930453,0.3384193126851415
7.708,1.1612855897493304,0.9834849916207985
7.712,1.4663219440762822,1.1662638705519992
7.716,1.4682698940480838,1.1455309802211047
7.72,1.1884091134089767,0.9633059636960407
7.724,0.5138468638284939,0.42989318088752304
7.728,-0.36095097420355504,-0.2610279843270794
7.732,-1.267452756158566,-1.0366440130230208
7.736,-1.5940776206870257,-1.2102787546709999
7.74,-0.8862301903924737,-0.7302486843451524
7.744,0.020982778677608983,0.0592095137276784
7.748,0.18820013569232075,0.23754544973136693
7.752,-0.001255998525650559,0.11717734421145774
7.756,-0.006623137702155087,-0.01955197478649929
7.76,0.26370403598423836,0.21457042387987352
7.764,0.38068212776386,0.3447450351990301
7.768,0.31777483154947406,0.24033018318915278
7.772,0.06803325446360847,0.0021868336735046887
7.776,-0.03512502671472001,0.00711864603742781
7.78,0.1755098547956054,0.10416828133504549
7.784,0.3365266257444192,0.3981374637990274
7.788,0.32239575827848105,0.24272775873947808
7.792,0.16495162548262682,0.13255328736513342
7.796,-0.06511022657860968,-0.0249912259404887
7.8,0.13953516909104138,0.15663032854184158
7.804,0.38108787289556345,0.34762231662770854
7.808,0.22108599425863773,0.27769066606869475
7.812,0.10180818708338144,0.07869496748367424
7.816,0.015602993668879322,0.021208847469436166
7.82,0.23825324860022107,0.09104698149682086
7.824,0.36870561394976964,0.27595996548899043
7.828,0.19532378825747365,0.1395411263415445
7.832,-0.11324529271836199,-0.13443620514709992
7.836,-0.14937996348802,-0.2313267002348125
7.84,-0.15909216204539817,-0.1811364566756895
7.844,-0.005390801878904228,0.0787435902241244
7.848,0.022846255489006012,-0.01248326638993559
7.852,-0.2557982767427165,-0.3082582294245756
7.856,-0.33898160437484126,-0.2917469913568875
7.86,-0.17108125323529763,-0.09613643098441094
7.864,0.10334150214710601,0.010413469467059233
7.868,-0.0157848055250321,-0.013712056443483153
7.872,-0.10640137357525586,-0.10357611455270223
7.876,-0.061914384044438206,-0.14513138184875732
7.88,0.14109282289783928,0.12280998631875725
7.884,0.3962930316030421,0.3427423318796497
7.888,0.4526604952266519,0.33321005017972744
7.892,0.2350019907038794,0.1461682810207745
7.896,0.1446469672285298,0.18299222409000782
7.9,0.4997571932822279,0.37975667740939645
7.904,0.6255027861450645,0.5255088105933904
7.908,0.6253217025053531,0.5046915789206058
7.912,0.5063321524310124,0.3370934138969516
7.916,0.30095668984979307,0.2544137492955464
7.92,0.5246404784085521,0.4518348380603473
7.924,0.6122479527003154,0.5325257193952891
7.928,0.5550652426923675,0.47319474633865116
7.932,0.2941505789126114,0.20063246918427866
7.936,0.1477799609347141,0.21263025956820347
7.94,0.26603305508825786,0.26568811207174536
7.944,0.3528862389490144,0.3091770685462334
7.948,0.23069080215734647,0.19621419361053585
7.952,0.036048907317842105,-0.07444661397071234
7.956,-0.14547886790411574,-0.15903861271295502
7.96,-0.10606062944804429,-0.10785423054683746
7.964,0.12387298550381393,0.08726657454629397
7.968,0.00925546826519752,-0.03417959039418429
7.972,-0.32558827024180986,-0.2253229316901052
7.976,-0.2430378646162854,-0.2830894838328135
7.98,-0.16942498989137988,-0.12010319536858569
7.984,-0.0030945344224735105,0.08393195820267821
7.988,0.024524844373257783,0.054702916897365325
7.992,-0.16753970925285605,-0.13804104341732693
7.996,-0.26497739211128907,-0.18491361161479522
8.0,0.022239838735939925,-0.03416716543957976
8.004,0.26880018792071964,0.2636431386856412
8.008000000000001,0.2403292414100211,0.28179786086968917
8.012,0.09654555277376836,0.17843236150989755
8.016,0.04832107743545602,-0.011449355774835895
8.02,0.12996249519568365,0.11119550959836215
8.024000000000001,0.33560617664014886,0.32127808036171746
8.028,0.2969154835077386,0.23450901585454012
8.032,0.05021161910835155,0.06574296102040761
8.036,-0.017152140995649788,0.01884002026586331
8.040000000000001,0.26171827457288743,0.11137197024722179
8.044,0.32609206352705195,0.3433024832102349
8.048,0.37386469440427617,0.28065964463174614
8.052,0.1028232912899075,0.06399508605617413
8.056000000000001,0.03549500773822978,-0.032849551569443435
8.06,0.15943605639238284,0.08973251246941338
8.064,0.27799718583231064,0.23624570435383102
8.068,0.19737296700097146,0.2619097379536128
8.072000000000001,0.0415116302702087,0.023188581318058604
8.076,-0.04640757796590464,-0.07679589006944143
8.08,0.13179696363019738,0.07854975754565716
8.084,0.38451424068756096,0.2962129887394693
8.088000000000001,0.4241333794208446,0.22684681899692152
8.092,0.01326262270690215,0.045894009108617004
8.096,-0.058110559942437634,-0.07041537600437303
8.1,0.26612487924818773,0.13710319473658766
8.104000000000001,0.3482684365009318,0.2617589926221054
8.108,0.34331959682697477,0.18717710220378997
8.112,0.08070313999255159,0.027039363900269425
8.116,0.03194607763154278,-0.01762176754515979
8.120000000000001,0.18561571340494137,0.17842219652799607
8.124,0.36152976936423775,0.3371439877110795
8.128,0.23836371041628737,0.2165338764452794
8.132,-0.02108426509371715,0.06837069864035078
8.136000000000001,-0.11578643479759698,-0.00305542722108907
8.14,0.1373355557208274,0.2264594024252595
8.144,0.2851232446997264,0.3505135410769747
8.148,0.297697697155626,0.22445935798469557
8.152000000000001,0.05452206813027121,0.04007520122241486
8.156,-0.04389585244679643,-0.036191290374311645
8.16,0.20189227316323272,0.14908644116711167
8.164,0.4019890253412236,0.3656726195498101
8.168000000000001,0.3188821727928679,0.24291468143092315
8.172,0.015298176534546348,0.0044794886290126686
8.176,-0.07329191134838273,0.010174522554209031
8.18,0.0903019151719144,0.18396365682744809
8.184000000000001,0.3743068973078597,0.32130995644819316
8.188,0.2938725914357314,0.21873945654861973
8.192,0.037371972059108687,0.09616288664798582
8.196,0.00884797199385301,-0.042244092256503295
8.2,0.1621551737258552,0.07897037187616751
8.204,0.32536113436243863,0.2891265133337607
8.208,0.283360425145313,0.1690758029556777
8.212,-0.018708823492499888,0.0494195403772484
8.216,-0.04822250868894189,-0.050754268581150015
8.22,0.15978332089268993,0.12174770827176067
8.224,0.3200797084368083,0.24072131089786558
8.228,0.29741257441984237,0.2157263051954576
8.232,-0.010107146323891814,0.01967439951328108
8.236,-0.12384732073223814,-0.07179037739707013
8.24,0.2166402821688828,0.1392167594251817
8.244,0.23466696282808353,0.2561565593758766
8.248,0.3386986692432137,0.28150631548380334
8.252,0.032835796147788844,0.08586028110705932
8.256,-0.023094529426108852,-0.042970563595640554
8.26,0.1410487501786775,0.09349253457478982
8.264,0.3260109841187047,0.2615049930710658
8.268,0.29247142399895804,0.23866354487214456
8.272,-0.03562097778185061,0.041673756873414035
8.276,-0.06828256257604728,-0.0409071510614758
8.28,0.1054115419779214,0.10505004485207886
8.284,0.28846020699353714,0.31890677863406197
8.288,0.23427966593873004,0.17680764911285882
8.292,-0.010857256749901179,-0.004436808909414638
8.296,-0.14379123118790785,-0.06431696061274113
8.3,0.06346744276869354,0.12962373804755462
8.304,0.36206895597642824,0.2628817461699394
8.308,0.24092513091898227,0.24661255779483793
8.312,-0.02287332463061053,0.08030211615386028
8.316,0.0018673228154426208,-0.005719899085741886
8.32,0.13026436358902796,0.07073301753048011
8.324,0.38868473349817523,0.2786422222852901
8.328,0.2151792209083061,0.26986351243082507
8.332,0.07885536753866337,-0.007609407491671171
8.336,-0.03998907112989656,-0.08003053886283601
8.34,0.15756620815641703,0.12884562198044747
8.344,0.34069297870272863,0.3256252163283653
8.348,0.2727297495748709,0.20763470750283375
8.352,-0.05225656990898743,0.024151602030812985
8.356,-0.04293534042290131,0.006410723590757859
8.36,0.08942930192809434,0.13609766496460987
8.364,0.3976236996645738,0.38730516598361836
8.368,0.2529803406204292,0.20061072852719514
8.372,0.01462732336062271,0.019424921356857444
8.376,-0.15846169234307073,-0.1121652898903843
8.38,-0.04432307636398135,4.794264582230756e-05
8.384,0.20152352598735523,0.11887880105906383
8.388,-0.028458059908631636,-0.04851610127642944
8.392,-0.21869736490759029,-0.24292590514504891
8.396,-0.18749941456773284,-0.28761674701179674
8.4,-0.044388263635878854,0.06825199510605462
8.404,0.33400757451621865,0.24743274359446354
8.408,0.32603675899495826,0.21160946194209493
8.412,0.22314888953042492,0.029467298966902505
8.416,0.13679492634008095,0.1429791212794182
8.42,0.4048942336997886,0.3694689890135663
8.424,0.5666439421900081,0.47689872097470826
8.428,0.5198051854903956,0.41279909756283295
8.432,0.1172854630554799,0.03585739299937672
8.436,-0.022850743411771058,-0.023825589522042286
8.44,0.11642838577969378,0.06136093170006367
8.444,0.12139635490975079,0.07678773308807808
8.448,0.0031840602260769096,0.03623581603228546
8.452,-0.3816959457735353,-0.2053592990520997
8.456,-0.2870423068991466,-0.29178802847873675
8.46,-0.013051576142125383,-0.09549715685914942
8.464,0.19194852965757714,0.24518783478406977
8.468,0.3008037833666047,0.15290516922333613
8.472,-0.010941397930061297,-0.05645249234986079
8.476,-0.04047953311596035,-0.06342580339492357
8.48,0.11666237185733268,0.13496806089192698
8.484,0.38055335659782763,0.341600142561862
8.488,0.19826989341001938,0.23344284622792388
8.492,0.0862256149330406,0.049031587432364604
8.496,-0.06842987746708935,0.04315727180315784
8.5,0.1528803057291884,0.12485183452510687
8.504,0.23876709209542496,0.2597510412697914
8.508000000000001,0.3049642564560754,0.20887341331694684
8.512,0.005125138242564203,0.00572390035206902
8.516,0.022310632939699357,-0.09596376010909392
8.52,0.11790784692595194,0.07009426877853236
8.524000000000001,0.3293191743420944,0.29406259698574005
8.528,0.228421285766364,0.2361479513625446
8.532,-0.03800480663060845,0.06980047713752514
8.536,0.0007027977197013036,-0.1309658486269955
8.540000000000001,0.05732171387626123,0.05775125856743822
8.544,-0.4581040572446694,-0.3590109763648341
8.548,-1.116996448298375,-0.8697656595182476
8.552,-1.4699658512343676,-1.1504923720278681
8.556000000000001,-1.0667600593381728,-0.9181880909920519
8.56,-0.19638989713385147,-0.08366022431558567
8.564,0.9472925287218139,0.8549851875000706
8.568,1.4881478499298344,1.2647681292546518
8.572000000000001,1.479195707981631,1.1652508817778515
8.576,1.0399730282809805,0.8739506048615577
8.58,0.5333848209074447,0.4849473628119685
8.584,-0.22203536046405176,-0.06548067904269175
8.588000000000001,-0.9722155008419691,-0.8315229661766403
8.592,-1.4469952708390228,-1.1416907235077456
8.596,-1.3745478366528103,-1.0914540749144395
8.6,-0.46335028814518936,-0.3104687880400651
8.604000000000001,0.3415378505179816,0.27196936963303486
8.608,0.2754907961939861,0.14969740818539093
8.612,0.01711288104542668,0.04157051699881654
8.616,-0.06262725665855855,-0.07193262837272274
8.620000000000001,0.08030018540822702,0.018268415294399418
8.624,0.234864380253144,0.24683714720083383
8.628,0.27720632829727987,0.19563897084174048
8.632,0.014454625259921326,-0.013895976110399843
8.636000000000001,-0.11490225189894335,-0.028858062705474086
8.64,0.08712523237039946,0.041801843847416184
8.644,0.2775922582902511,0.32374808798754395
8.648,0.2556976943044872,0.23978284204619135
8.652000000000001,0.047517870908338915,-0.028741870138622214
8.656,-0.002860769207846753,-0.07729437935766513
8.66,0.12621000949172012,0.028796061609485862
8.664,0.32507431425342853,0.3043826521209002
8.668000000000001,0.15937816125410686,0.2956435559821896
8.672,0.0733465499167595,-0.03049431222962859
8.676,-0.11758224920614142,-0.05542129669522128
8.68,0.03142698515460507,0.09900543570724733
8.684000000000001,0.27301936742317184,0.13925016984440922
8.688,0.08896822807147017,0.09482314288213975
8.692,-0.2730328421177768,-0.18369966748619465
8.696,-0.29807541732373116,-0.3202717615650326
8.700000000000001,-0.19556696660838707,-0.17694612668165002
8.704,-0.04367580699172643,-0.056625151959523924
8.708,-0.11226750222341574,-0.013289783067313876
8.712,-0.39970765383010304,-0.29042024703283853
8.716,-0.364367481261141,-0.34813422005731925
8.72,-0.17207719259878373,-0.14297948603142963
8.724,0.037730514283521484,0.12094748879834516
8.728,-0.03920459927578242,0.045141938713443505
8.732,-0.1417106616079699,-0.18020447842464155
8.736,-0.19316338053748885,-0.15968089453570616
8.74,0.1392411222369889,0.06391076965460421
8.744,0.3762143759758919,0.3306816291155676
8.748,0.3440878131301797,0.2687462767123295
8.752,0.2073733401342427,0.12710677074224078
8.756,0.0929908379845823,0.1541071127694108
8.76,0.4995970368229716,0.3240414695165769
8.764,0.613838156085017,0.5972058981521837
8.768,0.5925861783401288,0.5365362156369271
8.772,0.4705554688137458,0.28308666189641524
8.776,0.27986655848190284,0.2280658290137289
8.78,0.5344045174482539,0.33490140043925937
8.784,0.6307573476303454,0.5279681249152698
8.788,0.45773055166244625,0.36467468358007255
8.792,0.06182304252824994,0.138361150660429
8.796,0.12176224558508357,-0.01000936566028221
8.8,0.19498476460094466,0.2000338854624636
8.804,0.37843910334149544,0.33676783154709977
8.808,0.045620451905503706,0.15410342533033117
8.812,-0.18383081495797832,-0.23844321072890887
8.816,-0.29280103876583125,-0.2911651910517209
8.82,-0.13846169504908126,-0.19409172149274487
8.824,0.026556954155014176,0.030788937089226004
8.828,-0.08266657841360442,-0.07412162285754445
8.832,-0.3944122629322365,-0.3327641399638554
8.836,-0.4277946087495991,-0.38965699666899006
8.84,-0.26280335363213037,-0.22112815637902064
8.844,-0.07359418528336276,-0.031032434163870547
8.848,-0.14696184152005104,-0.04533592143321827
8.852,-0.23012657942096704,-0.2383574477148252
8.856,-0.13467100543016963,-0.20025949103395466
8.86,-0.03414826360065401,0.036556921779515195
8.864,0.3050530721789344,0.25076965672096374
8.868,0.3442151912743996,0.18034190086299123
8.872,0.030299061054703688,-0.02310103843939044
8.876,-0.0837991684391495,-0.08423582266096084
8.88,0.08431214329131095,0.11767916190533664
8.884,0.3518593551459659,0.31119477675511875
8.888,0.2190319767757012,0.1928591683781369
8.892,0.04164752800284542,-0.01772715892316116
8.896,-0.07230145584324077,-0.1381290922851712
8.9,0.10391906113802782,0.10927044721922048
8.904,0.20065091108269245,0.22055231526818214
8.908,0.2884256079772046,0.1673834936671977
8.912,-0.035812699392642616,-0.05271192167894875
8.916,-0.15948342167816457,-0.1267387096941916
8.92,0.06404834487032543,0.09018773110246783
8.924,0.3220606256050477,0.25117630520274736
8.928,0.19727892955156398,0.1835161185607925
8.932,0.0854138744420339,0.0005866526193880478
8.936,-0.1847870354170175,-0.085288431518315
8.94,0.13127397384470804,0.08858731291369243
8.944,0.3453325776759408,0.18559928547892723
8.948,0.21986611495405753,0.13435151231203168
8.952,-0.045751704549021485,0.01803100408605892
8.956,-0.11663068512870596,-0.11101947691913631
8.96,0.134762740566998,0.07541510606638523
8.964,0.28841139933378773,0.2961584050390972
8.968,0.21731090455779145,0.2239745126563885
8.972,-0.05300734024641489,-0.07780323600608857
8.976,-0.07472733781844118,-0.06549394714308081
8.98,0.13386301831768804,0.12102325077333526
8.984,0.3641149531748555,0.2623428651144004
8.988,0.1845342834669225,0.21711990194653769
8.992,-0.07507966923187698,-0.05212210841168291
8.996,-0.12494495477708405,-0.11853900484812399
9.0,0.06204250686348184,0.010892358184142636
9.004,0.27109409996147454,0.23986316241261926
9.008000000000001,0.29350031316924197,0.14925547027647737
9.012,0.0622502241296026,-0.022013515381317524
9.016,-0.09758159736884009,-0.1539022103045841
9.02,0.08740731066793335,0.03723294186708198
9.024000000000001,0.24947363667844535,0.23378428803128892
9.028,0.291876868637125,0.18379892295907352
9.032,-0.09425567570611888,-0.06667113619474678
9.036,-0.13854999137912982,-0.15018408047985266
9.040000000000001,0.051896510757567696,0.1495142746246914
9.044,0.25579120661360527,0.2710416303416997
9.048,0.2297461851816807,0.17096392771121408
9.052,0.04294103168676561,-0.10995248050721904
9.056000000000001,-0.08270946193337787,-0.14274508099854652
9.06,0.0889370807002023,0.046583358384054904
9.064,0.3090389092870756,0.25596989437846723
9.068,0.22235393349453206,0.14147278063229451
9.072000000000001,0.013349747397289086,-0.01664589071554191
9.076,-0.17936096332792692,-0.07248847421627028
9.08,0.13775286967363637,0.03164241911877266
9.084,0.31247244257064166,0.25501901223576073
9.088000000000001,0.27034580572877226,0.2080062140908293
9.092,-0.08400264661009028,0.0008249978369921154
9.096,-0.15775036856320587,-0.15929192528617547
9.1,0.11601603249491677,0.09684558651927734
9.104000000000001,0.14283334051006427,0.23427345146100226
9.108,0.16169713485691084,0.2364929623732243
9.112,-0.11029117150025908,-0.09523453022996634
9.116,-0.1631707815355773,-0.10677845988503162
9.120000000000001,0.15087408132703461,0.12546534931789308
9.124,0.18368256693998677,0.21056493290988273
9.128,0.22567494871898253,0.23272293216323048
9.132,-0.0038796799281759567,-0.0647677385822444
9.136000000000001,-0.12386619774893019,-0.11556779884155098
9.14,0.09335722965134735,0.053032646849213896
9.144,0.29000236444466554,0.26629113865810794
9.148,0.18803581923788815,0.2793721035914715
9.152000000000001,-0.10551214149938506,0.0009583391399902441
9.156,-0.08547455920530098,-0.08737025587973765
9.16,0.07086390173219424,0.0921681511849202
9.164,0.24569833588432846,0.23404799408635094
9.168000000000001,0.16046400070508818,0.09702932795078618
9.172,-0.029221414610650198,0.05785034030291995
9.176,-0.15338122680954894,-0.15975878494763132
9.18,0.14683134892043942,0.10727631951944902
9.184000000000001,0.27243192564217694,0.23723213121985376
9.188,0.23996681883516105,0.18871808859272385
9.192,-0.061851057148547564,0.015800149158179067
9.196,-0.07697887757550359,-0.11566942655272536
9.200000000000001,0.16758043612870926,0.028747392137615544
9.204,0.3005477456583102,0.2578137721779458
9.208,0.16266752257674574,0.16801426837854663
9.212,-0.08719794516965232,-0.04731086422974457
9.216000000000001,-0.1696815867802112,-0.15761405457860833
9.22,0.09161909064138737,0.09293087460698973
9.224,0.2887224329008793,0.1989064795064072
9.228,0.22653305159292686,0.1855222656160232
9.232,-0.09119774383245435,-0.06084978089102405
9.236,-0.23193411843512216,-0.17519969920820233
9.24,-0.08369552288978846,-0.04151082195021973
9.244,0.04536385503610729,0.03966770237836883
9.248,-0.07766260831414268,-0.05807633430612271
9.252,-0.28192768305731736,-0.237257231871203
9.256,-0.30210210981125135,-0.2750047015942157
9.26,0.06424407231786394,-0.08231341465755532
9.264,0.31842750982118756,0.23720135675963466
9.268,0.35181267436558006,0.23802656674947265
9.272,0.1961992655020754,0.06593600233526359
9.276,0.10208027084752563,0.09955581541537965
9.28,0.291935020155616,0.25292074525150193
9.284,0.47980053203405415,0.38020038796766614
9.288,0.4382352893973859,0.2621784266624715
9.292,0.06341038675611599,-0.03549386580995313
9.296,-0.16066169162301458,-0.21284805495752943
9.3,-0.04403664334336245,-0.0998654054325862
9.304,0.08044837848676106,-0.0036411402856652356
9.308,-0.12670632475331678,-0.056401501110272326
9.312,-0.34218257430709753,-0.2456816517297501
9.316,-0.37045484406798573,-0.2416967311253309
9.32,-0.19364151339593225,-0.06909818491080093
9.324,0.20891114181844958,0.24635742698039373
9.328,0.1914800143329651,0.1775239617554262
9.332,-0.08785105805622859,-0.042500425810886755
9.336,-0.07439883767673185,-0.09919216641249125
9.34,0.06360387375963218,0.01351346372880468
9.344,0.2753542943929015,0.2170045646941168
9.348,0.24369059918363456,0.11647116841423545
9.352,-0.25359771271859916,-0.04371824276303111
9.356,-0.16231310980522126,-0.14083484271997987
9.36,-0.022371200048119773,0.010261746968730376
9.364,0.2267307345735251,0.29087701482131595
9.368,0.17722142167729046,0.12277522561567894
9.372,-0.11105908481578088,-0.05886750525561069
9.376,-0.0956591301998006,-0.13024278333742856
9.38,0.12351170285007992,0.027677356117146175
9.384,0.24109579130719794,0.1575371727476056
9.388,0.16159579813609332,0.25468725016862886
9.392,-0.07049459039987752,-0.07329798882558713
9.396,-0.10017197787188958,-0.12757240086465377
9.4,-0.6573975192321542,-0.39186607247863836
9.404,-1.1209654671386975,-0.7992749994869106
9.408,-1.3319700081390211,-1.0190719057562687
9.412,-1.2206942495412316,-1.0151685319271182
9.416,-0.575989979174753,-0.481670835208232
9.42,0.4704562547007648,0.3493110542415186
9.424,1.3772822882795892,1.124335249376675
9.428,1.586807863447376,1.280858709137186
9.432,1.2129961566235943,0.975050209091679
9.436,0.554798335374769,0.3895887391544821
9.44,-0.13768670995421134,-0.13419012895573104
9.444,-0.8309507650341251,-0.6170132125696862
9.448,-1.2980190895969559,-1.0817159238267122
9.452,-1.4299391526222935,-1.1320379681081227
9.456,-0.9220398658234952,-0.8215509313275997
9.46,0.019258584189045858,0.03541957137993169
9.464,0.26040191255539036,0.22526823026600645
9.468,0.17848781816786052,0.21477356880305104
9.472,-0.017750111139662093,-0.06726294390696322
9.476,-0.17499653347726613,-0.11058690521719765
9.48,0.04301956725350638,0.06836077256747475
9.484,0.19711801775009863,0.26148667569891476
9.488,0.09322124196386196,0.1427895854681955
9.492,0.04117098175832859,-0.05304630130110495
9.496,-0.11628876299552081,-0.10526001418151165
9.5,0.050275266700378705,-0.0031232057360945364
9.504,0.28042358423677205,0.22701694402503808
9.508000000000001,0.16757064641495503,0.13003399537757088
9.512,-0.1321417996864785,-0.10530249977213026
9.516,-0.16730649579668638,-0.15289758818913274
9.52,0.08096871708684136,0.08131656131015028
9.524000000000001,0.2898898714592204,0.21555914972098186
9.528,0.07289444289872138,0.16406369660617184
9.532,-0.04218796154323332,0.044679145986324054
9.536,-0.17850528781241834,-0.14531854159558505
9.540000000000001,0.03302192942645105,-0.0592679675415229
9.544,0.014952783779556458,0.009217601230898743
9.548,0.008409534374600569,-0.0387481053355607
9.552,-0.429768914112136,-0.36695970460915467
9.556000000000001,-0.39572193917092935,-0.40270918556361873
9.56,-0.25791727805323433,-0.2825928162791424
9.564,-0.09663886803495109,-0.15077442939748342
9.568,-0.13363609984078836,-0.15446032771728851
9.572000000000001,-0.39700524054085884,-0.39858143441391025
9.576,-0.42348888382194844,-0.399992933445315
9.58,-0.2551871616958023,-0.2454433869910525
9.584,0.0036527930592370125,0.019668076697804997
9.588000000000001,-0.05639578157525329,0.033320783870389094
9.592,-0.1861527006969065,-0.13699224137920063
9.596,-0.20009465821584801,-0.14805938946200478
9.6,0.13325898689548726,0.0785902545041167
9.604000000000001,0.3651010343023465,0.304910890522569
9.608,0.3653141189536964,0.3022224785584921
9.612,0.21180687168029172,0.14982914413983447
9.616,0.053760691950762676,0.037789847007420524
9.620000000000001,0.3713480286775442,0.29626368628774624
9.624,0.5480440207369948,0.5420028375173145
9.628,0.5689475922302992,0.42901016718928686
9.632,0.23640749486444507,0.2355373583794629
9.636000000000001,0.2388534058817683,0.10908822058602327
9.64,0.33674715561231566,0.27420174785022866
9.644,0.5232724192708045,0.46431614935356946
9.648,0.28121650946021987,0.3310535632664419
9.652000000000001,0.06157314986010775,-0.013650631203208051
9.656,-0.03195234255162657,-0.04319448435081878
9.66,0.07702882026613726,0.04516851315415224
9.664,0.23557291036969588,0.12708467363381326
9.668000000000001,0.013425457716720712,0.01121780108071052
9.672,-0.3391306531569355,-0.24256239296342086
9.676,-0.4118302756712512,-0.37542995717362243
9.68,-0.2119924666534247,-0.19258766325935972
9.684000000000001,-0.0820295025281838,-0.04834674061974376
9.688,-0.24590217645212248,-0.1267397663512492
9.692,-0.45339452407316383,-0.43496608763026684
9.696,-0.4751462080316907,-0.39755809680992055
9.700000000000001,-0.23975340749423002,-0.28282962640725634
9.704,-0.09639470458048378,-0.017590565693318107
9.708,-0.10058769468029888,-0.07663284794684684
9.712,-0.2738905023613929,-0.22794084486885272
9.716000000000001,-0.3321502561756139,-0.2502655666536832
9.72,-0.051923788782645794,0.018417589553133964
9.724,0.10462709729724651,0.1633467438075537
9.728,0.20008542300908422,0.20905915398684005
9.732,-0.04482528792893747,-0.07341158379883085
9.736,-0.09041125828611618,-0.13296417675674446
9.74,0.04538416110412767,0.034239878943640584
9.744,0.29555744344724566,0.1690279270673478
9.748,0.19025840634717683,0.13181437765443407
9.752,-0.09829493295613498,-0.0989587398927091
9.756,-0.2468363276722662,-0.10704173190898299
9.76,0.008534096045353264,0.0609894081894804
9.764,0.2568890991794591,0.16472588909128255
9.768,0.12297864828462227,0.06516633552495049
9.772,-0.18526524271692013,-0.057237356434023445
9.776,-0.21215404762906104,-0.17646488258968196
9.78,0.03710261619291501,0.07776241460225539
9.784,0.23977412928477926,0.20009660200511092
9.788,0.14103941976673479,0.15419397889957728
9.792,-0.04246058119589941,-0.08921044083733856
9.796,-0.16793903237878363,-0.17334765947302208
9.8,0.017824895690783448,0.008002573800218422
9.804,0.30430128620991564,0.22054133493631148
9.808,-0.005223166283304936,0.09388754700572471
9.812,-0.032307520263153866,-0.07774922541331589
9.816,-0.1721682139833156,-0.18656058598315292
9.82,-0.005360788982804645,0.08082629840118659
9.824,0.168783747631262,0.20209268440276057
9.828,0.07256173857828713,0.05214195598807686
9.832,-0.06702166600483904,-0.10476645388400072
9.836,-0.16276008335118064,-0.20755714869348535
9.84,-0.020749761643217714,0.020699005161331788
9.844,0.223572497723852,0.15544164098373875
9.848,0.08424278947336739,0.1636493926641198
9.852,-0.04028421668461707,-0.09854116403938692
9.856,-0.2607310115327112,-0.17219471154851373
9.86,0.04326055540161275,0.045936510666523656
9.864,0.2139331162267387,0.13762913546954755
9.868,0.10512416320670907,0.15953897146574045
9.872,-0.10175267408750888,-0.1090448928865217
9.876,-0.21428530426095058,-0.14748986300576905
9.88,0.02914916942369327,0.009313094575946366
9.884,0.15679402540903103,0.17552032332295056
9.888,0.17089190501001078,0.15814008272682023
9.892,-0.045027374563850364,-0.10880856518031613
9.896,-0.17629302761172422,-0.19184569162845705
9.9,-0.11683777677010435,-0.051069840145820736
9.904,0.1713841558187219,0.25419085656200385
9.908,0.08258772433435216,0.15824583055179958
9.912,-0.08978221167801695,-0.07127070746417316
9.916,-0.22288569782484832,-0.1645946968488783
9.92,-0.031914969622165314,0.0006544094824279681
9.924,0.25623198958872495,0.22073779045456812
9.928,0.22381452903363308,0.14122885949630498
9.932,-0.15929559563325085,-0.08884125028788535
9.936,-0.249845548466209,-0.1560282959157158
9.94,0.0733356118263892,-0.003092860719641847
9.944,0.14270898115152147,0.22102942378872453
9.948,0.06580224556749756,0.11393667837869252
9.952,-0.02770330726453521,-0.04222891758281273
9.956,-0.21721774715718595,-0.1651008037188997
9.96,-0.019732073644391387,0.0329072513791346
9.964,0.09288906746088985,0.15372396596072424
9.968,0.06733111524563684,0.06931125937123964
9.972,-0.12114598777922296,-0.13632631455711908
9.976,-0.12345483125450081,-0.14888716948676425
9.98,-0.04451604763928487,0.023054633331666678
9.984,0.16554346739554088,0.18755248758579945
9.988,0.15399472029887903,0.05749667328451989
9.992,-0.12175597509844009,-0.06460765602680738
9.996,-0.16816624561918117,-0.24095073964497193
