Time,Channel_1,Channel_2
0.0,0.1765895135112947,0.18992759486377242
0.004,-0.14123297027243842,-0.12102041540188035
0.008,-0.4628437631379676,-0.43852456753259283
0.012,-0.7559827576699564,-0.7329591400910046
0.016,-0.9550401868548037,-0.9404821356158809
0.02,-1.0,-1.0
0.024,-0.8781430926834641,-0.8941203478907004
0.028,-0.6374889425400709,-0.6646674776698318
0.032,-0.36233219909778147,-0.39082981230253366
0.036000000000000004,-0.1281679472769377,-0.14635584816010838
0.04,0.02932978596595226,0.02986522584016238
0.044,0.11357108613974054,0.13445787232870776
0.048,0.14926482585357004,0.1854468541050529
0.052000000000000005,0.1654984984410952,0.20806206296958707
0.056,0.18405854289997836,0.223936688885654
0.06,0.21359348139186185,0.24444333413817154
0.064,0.25063919415763714,0.2697682682396063
0.068,0.28643901830856366,0.29485118144619515
0.07200000000000001,0.31435592541469304,0.3172336610285613
0.076,0.3321910585297372,0.33811142445889764
0.08,0.340047799501217,0.3568470888941766
0.084,0.3392461685996333,0.3687482713708887
0.088,0.33410079750902444,0.3701707447822622
0.092,0.3316963619766826,0.36361679427543514
0.096,0.3359294070274579,0.35529985534969577
0.1,0.3417372963899936,0.34772441505805296
0.10400000000000001,0.3378716660457357,0.33679010280730703
0.108,0.31605331912256074,0.3166012400935563
0.112,0.2770808080545071,0.28523299731625573
0.116,0.228756959302427,0.24525195669947175
0.12,0.1796755928413094,0.20039155419430776
0.124,0.1355544880471078,0.15366540405527163
0.128,0.09902590578121861,0.10826813739150865
0.132,0.07120294859920717,0.06862063160388199
0.136,0.053092802933225824,0.039969706628724344
0.14,0.04440640404336449,0.0262562508714117
0.14400000000000002,0.04268059507403299,0.02792548764286895
0.148,0.04588802319074747,0.04221424525937212
0.152,0.05463336558014964,0.06477823469092492
0.156,0.07100824280718121,0.09137281592923108
0.16,0.09604929297177356,0.12011526310184828
0.164,0.12826329496273337,0.15188012884672664
0.168,0.1647953381651075,0.18784940571452746
0.17200000000000001,0.20388263787734573,0.227944328497524
0.176,0.24445307543733685,0.27096151721608286
0.18,0.2832157663646713,0.3136056695595182
0.184,0.31470120659522904,0.35001454172556534
0.188,0.33512289536453643,0.375375445788374
0.192,0.3451885143469986,0.38926269891619425
0.196,0.3489037472751966,0.39356074349910486
0.2,0.3499930330415848,0.388973711247377
0.20400000000000001,0.34957196621612363,0.37489418767517635
0.20800000000000002,0.3464663281638347,0.3518757378171602
0.212,0.3386618911533288,0.3233061583861936
0.216,0.32423070540041365,0.2937559264762415
0.22,0.3009668557251235,0.26541607913653165
0.224,0.2664964732332571,0.23704828518294385
0.228,0.22077474375256423,0.20666354774521256
0.232,0.16823278797956953,0.17408047186114017
0.23600000000000002,0.11665218798672705,0.14080304855572057
0.24,0.07342533288962128,0.1084105369205115
0.244,0.04151717189473736,0.07791287830338889
0.248,0.019291256728836137,0.05107198654717848
0.252,0.004526617064901206,0.03137268917191682
0.256,-0.003439294135866744,0.021697434509790003
0.26,-0.005097743549349776,0.020633268359745216
0.264,-0.0011377152895352127,0.02345953343155327
0.268,0.008904844384904687,0.027995988510634673
0.272,0.026422765115633684,0.03802961376436831
0.276,0.052302571873777515,0.05994920092726952
0.28,0.0862612008626591,0.09625224247782782
0.28400000000000003,0.12606086168018527,0.14288824784058662
0.28800000000000003,0.1668380151921034,0.19193553175798828
0.292,0.20245248291747053,0.23470378170556816
0.296,0.22829789350767538,0.26304229212508545
0.3,0.24301206334232783,0.2721440457955775
0.304,0.2479797217655073,0.2644017063583062
0.308,0.2462115592832368,0.24849304243790926
0.312,0.24164129161052705,0.23325647471062072
0.316,0.23767128501994206,0.2225775699980872
0.32,0.23526553507456605,0.21562476459812507
0.324,0.23277691766872244,0.21056350641094057
0.328,0.22798049132965215,0.20695228857041292
0.332,0.22052791159009733,0.20561849227287698
0.336,0.2123652201271684,0.2075201994413507
0.34,0.20566130313246278,0.2122196535856924
0.34400000000000003,0.20078909649414545,0.21694792565472643
0.34800000000000003,0.1965147996172909,0.21778293194846832
0.352,0.19157822736712626,0.21267454185859846
0.356,0.18561145325097428,0.20304607438567768
0.36,0.17878480344238756,0.19241677327690176
0.364,0.1710856911699199,0.18478221457511457
0.368,0.16247077529262843,0.18322821736006012
0.372,0.15380247625828303,0.18749724782938681
0.376,0.14693702601778846,0.19353428181388632
0.38,0.1435583389292212,0.19679374731526722
0.384,0.14452497217139548,0.19522004297811835
0.388,0.15046416585823374,0.18916170665513232
0.392,0.1616206820585271,0.18084524389144163
0.396,0.1766018018762452,0.17506632648877263
0.4,0.19254070320723238,0.17701635371279645
0.404,0.20623140732893575,0.18694443357236423
0.40800000000000003,0.21419655654651715,0.20006749321540385
0.41200000000000003,0.21313228040362486,0.21199912716466796
0.41600000000000004,0.2016923833520745,0.22011383483259883
0.42,0.1821143974815147,0.22123012480302173
0.424,0.1605742192174533,0.21277698139961698
0.428,0.14482289418329897,0.1964577612089804
0.432,0.13965589818478574,0.17854171948609054
0.436,0.1445465495533267,0.16553509235738195
0.44,0.15488339958170516,0.16032872464109205
0.444,0.16474734771665478,0.16174407345032682
0.448,0.17043802191430646,0.1656075469017071
0.452,0.17234628270030972,0.16760085130369373
0.456,0.17265769993369617,0.16718055585660974
0.46,0.1724062448314374,0.16765435874780965
0.464,0.17199585810178064,0.1720639555061967
0.468,0.17252272260789958,0.18034962792092823
0.47200000000000003,0.17458168848265476,0.18948070696224062
0.47600000000000003,0.17716172267162533,0.1951029747338473
0.48,0.17872356509988174,0.194642732089511
0.484,0.17846280722086538,0.18984767769510058
0.488,0.17694893631408792,0.18549210088116674
0.492,0.17612269283368653,0.18510054471454662
0.496,0.17753698419298702,0.18860079978019062
0.5,0.18029127464369088,0.19389698097580044
0.504,0.1819290924064454,0.1990982840416542
0.508,0.18151188212547043,0.20296634561825044
0.512,0.18050321364217536,0.20431894698802688
0.516,0.18046799341235698,0.20216717003670137
0.52,0.18098105893443184,0.19687779486620482
0.524,0.1799731912170155,0.19042329950896097
0.528,0.1761151098812317,0.18516331043082856
0.532,0.17067049280007418,0.18276763934314544
0.536,0.16629696830827778,0.1836749703897269
0.54,0.16476328069978963,0.18652334162083206
0.544,0.16622543293878644,0.18859029798617244
0.548,0.16944395175269733,0.18784704884280967
0.552,0.17246395461416664,0.18463611342716213
0.556,0.17374813721340776,0.18144435630267086
0.56,0.17318042363571817,0.18085774969677781
0.5640000000000001,0.17254801810753517,0.18345464055792715
0.5680000000000001,0.17420657085654478,0.18836290856827742
0.5720000000000001,0.17803658726617178,0.1948678523403704
0.5760000000000001,0.18094296427709788,0.2017731124388158
0.58,0.18060980336943921,0.20661753074189249
0.584,0.17832461978954006,0.20735181765871613
0.588,0.17731799749388988,0.20421374279187243
0.592,0.17963821352492726,0.19901518337115243
0.596,0.18480930491033676,0.193168256898548
0.6,0.19039419725678242,0.18730959157610627
0.604,0.19352239678840943,0.1821549269388485
0.608,0.1924324766004626,0.1787626595177525
0.612,0.18722844079650658,0.17792096340227537
0.616,0.17991043885723457,0.1797533901878532
0.62,0.17400304774083808,0.18415012219465154
0.624,0.17286279840411733,0.1905881596903216
0.628,0.1771488076782315,0.19748800903987274
0.632,0.1841660027453209,0.20335035277939273
0.636,0.18995344018428084,0.20858912581456446
0.64,0.19224867590043337,0.21481145159326642
0.644,0.19161729959878104,0.221561156105212
0.648,0.18987925855032595,0.22443384433982705
0.652,0.18751343670449416,0.21772625615644925
0.656,0.1819192367008582,0.198766553145445
0.66,0.16821680766186486,0.16871540052960943
0.664,0.14317122655198,0.1310737938967086
0.668,0.10939134571204168,0.0917944383871645
0.672,0.07580219296916457,0.05928808253932516
0.676,0.053972864769074036,0.04265082726232139
0.68,0.053085063006659494,0.04982987963544838
0.684,0.07620500910893235,0.0847955166952048
0.6880000000000001,0.1198752776325327,0.1435115717030453
0.6920000000000001,0.17675284563948046,0.21384114860061798
0.6960000000000001,0.23785220025098197,0.2811477053154974
0.7000000000000001,0.29297686889855035,0.3334550306276085
0.704,0.33166121905413415,0.3628118883500784
0.708,0.3458461625817879,0.36586316697878796
0.712,0.3320451584496966,0.3443059673816149
0.716,0.2916509787084627,0.30352750544929363
0.72,0.2316089347326893,0.2502340668740026
0.724,0.1645366041664178,0.191664227827542
0.728,0.10502599907726529,0.13699414989536396
0.732,0.06461638611174325,0.09645436439510813
0.736,0.04898136370101813,0.07633539275491019
0.74,0.057272993679676976,0.07641009725345027
0.744,0.08350674389871404,0.09245761452780532
0.748,0.11920491640025044,0.11884914697575644
0.752,0.1553824470351548,0.14905888541246437
0.756,0.18447153554339102,0.17651921022664085
0.76,0.20307249959610307,0.19710059159344762
0.764,0.21263848644420769,0.21088846136883244
0.768,0.21653712077998843,0.220645038189065
0.772,0.2168208943526304,0.22832620899997846
0.776,0.21420115800381212,0.23329970466401195
0.78,0.21005533268243015,0.2341311840683169
0.784,0.20661417898234036,0.23202415683034983
0.788,0.20577486543305512,0.2314642084991927
0.792,0.20953352687638516,0.23668498934410387
0.796,0.22086452122428413,0.2487998815442689
0.8,0.24241736845545847,0.26722284075891967
0.804,0.27334435213610786,0.29126140893749786
0.808,0.30559886021748195,0.3165120643875676
0.812,0.3209973724426174,0.32794242802816287
0.8160000000000001,0.29239828404252255,0.29842860705089014
0.8200000000000001,0.19342148866666786,0.19981650221591596
0.8240000000000001,0.01778888135983947,0.02479843033907403
0.8280000000000001,-0.19913020068307052,-0.1916451132485708
0.8320000000000001,-0.37673083690209375,-0.3701326447481046
0.836,-0.4205546607393028,-0.4167794272292906
0.84,-0.2739385934923505,-0.2732760337329587
0.844,0.045950449700201235,0.04470273679514203
0.848,0.44807770707966665,0.4461924150187351
0.852,0.8003930222504843,0.7992542981609834
0.856,0.9802018950711464,0.9815609963989824
0.86,0.9222458848791093,0.9283522447050776
0.864,0.6459388937445163,0.6595512914197672
0.868,0.24871311239107774,0.271713599768709
0.872,-0.13350663951898467,-0.1018727865451644
0.876,-0.38025206659221567,-0.343334022705974
0.88,-0.4319059050862224,-0.3937421849778313
0.884,-0.30929943742303956,-0.2726956324555768
0.888,-0.09587654287888592,-0.061910403489202626
0.892,0.11257169110770615,0.14344347654280987
0.896,0.2561644013703279,0.282040202420041
0.9,0.32308494217836303,0.3405299169445468
0.904,0.33152011697651496,0.33868013510363126
0.908,0.30808769942853154,0.3070911777197485
0.912,0.2750420248024965,0.27135844028029843
0.916,0.2462496831714831,0.24572090491777376
0.92,0.2287531830977334,0.23363661303004513
0.924,0.22466989147709993,0.23208106525656347
0.928,0.23134349090668982,0.23639015669336794
0.932,0.24231677260614415,0.24315482749001172
0.936,0.25125039545950867,0.2505511780542764
0.9400000000000001,0.2565217566857487,0.2578298216175734
0.9440000000000001,0.26069409334821203,0.26467851467518066
0.9480000000000001,0.26486566888677765,0.26954210237464116
0.9520000000000001,0.26570202685096755,0.2692846921725658
0.9560000000000001,0.2574465373275685,0.2611752649176342
0.96,0.2352166492676473,0.243686301472682
0.964,0.19874913316666465,0.21668665218065697
0.968,0.15435880951492464,0.18247506242548495
0.972,0.11141456328948074,0.1451801231494927
0.976,0.07656047124722964,0.10922399799740523
0.98,0.05170233506619626,0.07837900646953355
0.984,0.03567641517854803,0.05461586788257389
0.988,0.026145843742616748,0.03790915513815052
0.992,0.020650995883353396,0.027563819203479056
0.996,0.01751327137250791,0.023057858415409083
1.0,0.016584180571976193,0.024111536410476475
1.004,0.019446231022163474,0.03133762389923622
1.008,0.028917741949725295,0.04648027145567202
1.012,0.04739254541356508,0.07072029688397885
1.016,0.0752869207655511,0.10285897467943683
1.02,0.11131402626148756,0.13969692182660465
1.024,0.1531600474633592,0.17782906981743918
1.028,0.19786956313993986,0.21496997104433202
1.032,0.24254581940834474,0.25047484605718284
1.036,0.28424317754230977,0.2850216577831759
1.04,0.3198444110230576,0.3186688443641992
1.044,0.3473617321852345,0.34906772754759374
1.048,0.36644499239824824,0.373226917860503
1.052,0.37740230411254894,0.38974869896745745
1.056,0.3805213425500713,0.3976318862266095
1.06,0.3756291165940675,0.39607499242745803
1.064,0.36236853432393934,0.38581511619726916
1.068,0.34144628839667157,0.3676891386071546
1.072,0.3144277525790311,0.3416607177048523
1.076,0.2822445679469061,0.30870079597884303
1.08,0.24556113846185212,0.27155233872738127
1.084,0.20614619742031492,0.23333247682422043
1.088,0.16679306769152658,0.19628055657879417
1.092,0.1302890955266276,0.16080608306378252
1.096,0.09823909217189808,0.12507274458344675
1.1,0.07066386925537493,0.0874640318988289
1.104,0.046756283532217724,0.049930652543814125
1.108,0.026167260087165856,0.01755366214908194
1.112,0.010171977767092555,-0.004912044332569421
1.116,0.0012732910941293252,-0.015560348247053546
1.12,0.0015162290474490803,-0.014469605503421912
1.124,0.01174076538979607,-0.0013280510632354137
1.1280000000000001,0.03187306126940603,0.023946393513385233
1.1320000000000001,0.060583982972346906,0.059077149678264496
1.1360000000000001,0.0948592768792802,0.10026822588177464
1.1400000000000001,0.13134639849680396,0.1441907192023668
1.1440000000000001,0.16783199791744075,0.18812870451521602
1.1480000000000001,0.20224627182872146,0.2289299923034953
1.1520000000000001,0.230710642065467,0.26211034976046377
1.156,0.24805402912425545,0.2828601684204388
1.16,0.25159591184708274,0.2890480725229827
1.164,0.24378878490775113,0.28233889676677193
1.168,0.23033694128894444,0.2661452065139229
1.172,0.21699168402476388,0.24479475895180958
1.176,0.20773285471685576,0.2239091388046741
1.18,0.20412802244338057,0.20812437653750004
1.184,0.20539404695783658,0.1986315784964514
1.188,0.20890770827899674,0.1941668965970118
1.192,0.21154507019184532,0.19339736213869974
1.196,0.21088776889069827,0.1961030240086985
1.2,0.205978093867486,0.20252914590780535
1.204,0.19793423396057963,0.21116806436935298
1.208,0.18873453888793024,0.21792317919428972
1.212,0.17928110688352472,0.21908275386559772
1.216,0.17023916772079217,0.21430469660778195
1.22,0.1642337487097798,0.20567611002784458
1.224,0.16462924115153643,0.19568476914017086
1.228,0.17162948775738074,0.18640373880916727
1.232,0.18148803608509567,0.17850335236848625
1.236,0.1894663956753364,0.17155562878355268
1.24,0.19234315302884664,0.16684043507866386
1.244,0.18923137329125517,0.16826742972309905
1.248,0.1814445186484317,0.17814217661999
1.252,0.17136957875705772,0.1926875087400426
1.256,0.16126524337990777,0.20406457394370547
1.26,0.153387198018605,0.20684353859131144
1.264,0.1502374285549437,0.20163071173966784
1.268,0.15318826894944082,0.1934194086873866
1.272,0.16105846244996358,0.18740286257178274
1.276,0.17066089002422125,0.18572905187828082
1.28,0.17868825173698744,0.18674620012424947
1.284,0.18301795154495082,0.18660062022730717
1.288,0.1827158213556519,0.18272734187213646
1.292,0.17797864045129086,0.17651433692950036
1.296,0.17035007065944474,0.17162355307645805
1.3,0.16248089228106277,0.17024799878891428
1.304,0.15775311292729643,0.17243109244705268
1.308,0.15924476832471268,0.17730455364867326
1.312,0.16714781030629977,0.1828713976639711
1.316,0.17719884726542334,0.18649610577652553
1.32,0.183910729177299,0.1875863354355467
1.324,0.18587760377380014,0.18840769667111723
1.328,0.18579606214556388,0.19107089303526337
1.332,0.18566762543842552,0.1943730601859044
1.336,0.18464287287908454,0.19459711591440043
1.34,0.18132962559696475,0.18966448131830305
1.344,0.17604832427343742,0.18160056799948765
1.348,0.1707625870579983,0.17499047677458535
1.352,0.16806583624607074,0.1737110252102445
1.356,0.16973891549871456,0.17793435375109534
1.36,0.17503634951225422,0.1837656075105436
1.364,0.18076388431741952,0.18724104808261788
1.368,0.18360774629425847,0.1881745493406135
1.372,0.18217549438724046,0.1889261367419015
1.3760000000000001,0.17760632134548993,0.1915344060438835
1.3800000000000001,0.17246759450449067,0.19696839535404265
1.3840000000000001,0.1683816078285716,0.20462767988826935
1.3880000000000001,0.16564622454488598,0.21195010835702388
1.3920000000000001,0.164694720439315,0.21561743529780664
1.3960000000000001,0.1658777800412492,0.21313685315001263
1.4000000000000001,0.1681980389825668,0.20429425182895145
1.4040000000000001,0.16978309444848594,0.19273517967719456
1.408,0.1698795850892092,0.1844614443247541
1.412,0.1698064744402794,0.18295327077944434
1.416,0.17164865894654513,0.1872001905102525
1.42,0.17626131530905997,0.1939325832591472
1.424,0.18257378291905835,0.19918310444640186
1.428,0.18813684921520846,0.1993534856631607
1.432,0.1899380485737452,0.1936639437802088
1.436,0.18570657814830915,0.1847281434914403
1.44,0.1759612116179332,0.17644479451794415
1.444,0.164942408765548,0.17212541275115045
1.448,0.1585279583609649,0.17315793117113576
1.452,0.1603848830955117,0.1784452399871812
1.456,0.16930540815101613,0.18560296987732983
1.46,0.1801161293672453,0.19250719510033276
1.464,0.18773024488124146,0.1973825164898495
1.468,0.19022783266446952,0.19829129167138526
1.472,0.18884318983004622,0.1944074461858205
1.476,0.18680634621791858,0.187913937043253
1.48,0.18797306268588687,0.18260968139216627
1.484,0.19458222203085862,0.1806335222081834
1.488,0.20501672478235355,0.1818480590618088
1.492,0.21415944393302389,0.18523313020122045
1.496,0.21706155243445036,0.1899094445865135
1.5,0.21249183441975372,0.1957904213206625
1.504,0.20271336878733814,0.20309677340020915
1.508,0.1900314704113375,0.21009589527807826
1.512,0.1739998207163056,0.21163182550889137
1.516,0.1522201944723196,0.201404468355177
1.52,0.12387797044141657,0.17657833620452323
1.524,0.09225522394103014,0.14078374444510144
1.528,0.06377039368245141,0.10373314568667236
1.532,0.04576307664997081,0.07794611478190916
1.536,0.0453138399742683,0.07374503567382096
1.54,0.06728260086837268,0.09497721623448463
1.544,0.11090299126073488,0.13854493090767672
1.548,0.16826589760352983,0.19666949756255314
1.552,0.2272639581083966,0.25847574000083884
1.556,0.2769423714694299,0.3117534060721405
1.56,0.31046523063133646,0.34620530400023086
1.564,0.3243778692237482,0.35603352714603465
1.568,0.31722506208526635,0.3405720136885273
1.572,0.28965247936692173,0.3033411835658071
1.576,0.24571478881301245,0.2507059515847705
1.58,0.19303326983293934,0.19142966751446067
1.584,0.1403170029988503,0.13563814587214584
1.588,0.09575042714137894,0.09207780287306933
1.592,0.06723751170596826,0.06615882874275192
1.596,0.060405133127772626,0.06010704479691098
1.6,0.07565045951152993,0.0734822729103739
1.604,0.1080523293761515,0.10277743011726614
1.608,0.148526502660556,0.1409927029329081
1.612,0.18567490114087892,0.17899801535053972
1.616,0.21087929777926773,0.20898444870400845
1.62,0.22322017977063036,0.22756786093805847
1.624,0.22748948759725174,0.23541570562469638
1.6280000000000001,0.22742219363461014,0.23470436351392032
1.6320000000000001,0.22307998421694197,0.2282755399146592
1.6360000000000001,0.21455647896074015,0.21972474715344026
1.6400000000000001,0.20518621227899247,0.2123813139619417
1.6440000000000001,0.19999905901839066,0.20859011250701598
1.6480000000000001,0.20253100505177613,0.2105219040207973
1.6520000000000001,0.21402210959351864,0.22089813294269778
1.6560000000000001,0.2349458017540258,0.24188890385039175
1.6600000000000001,0.2650543490257311,0.27330615821371906
1.6640000000000001,0.29968082387313055,0.31035078958245577
1.668,0.32520188712769005,0.339796344488021
1.672,0.3178692483525791,0.3379027008619959
1.676,0.24930411912689143,0.2756806492160142
1.68,0.10126423715295507,0.13419905156553558
1.684,-0.11157480205253978,-0.07206393786710996
1.688,-0.32486181830330585,-0.2786052106374163
1.692,-0.43989929579739395,-0.38766589264206386
1.696,-0.374580943581886,-0.31982312833785476
1.7,-0.11371794156199211,-0.06230563367321629
1.704,0.27548783878773797,0.31712335509559275
1.708,0.6667935922963042,0.6931403426167619
1.712,0.9240034000919031,0.9322645620223711
1.716,0.9551974328038737,0.9477195109203276
1.72,0.749503951900945,0.7343474489812112
1.724,0.38147674458007774,0.36925872154190964
1.728,-0.018958850132841376,-0.02053366300781012
1.732,-0.31867824020922486,-0.3091142555309211
1.736,-0.4336774996286643,-0.41927621419458927
1.74,-0.3588841873428926,-0.3479930212335698
1.744,-0.16106013788076023,-0.15931985221456402
1.748,0.06216413207585281,0.054472901144641206
1.752,0.23260851610891398,0.22133304142387855
1.756,0.31961412779428344,0.31432521312612893
1.76,0.33498386869494534,0.34348120579114383
1.764,0.3102308185934264,0.33382017216683635
1.768,0.2760593326989995,0.3083621900640017
1.772,0.2516612432992005,0.2816656494989118
1.776,0.24223108468698396,0.261326114693303
1.78,0.24303709871886436,0.25051616164124724
1.784,0.24707275263414163,0.24851234022896573
1.788,0.25036678109016863,0.25219542166355624
1.792,0.25203332686362767,0.2580245580541447
1.796,0.25215217278519075,0.26266677964447127
1.8,0.25165628355929726,0.2648595142130392
1.804,0.2527769989270212,0.2668098713893199
1.808,0.256666339080158,0.2704628155955091
1.812,0.2600041370691022,0.27257048208849777
1.816,0.2549099159555257,0.2660552825704443
1.82,0.23395435851149138,0.24626568720775954
1.824,0.19607835442847787,0.2142068931148664
1.828,0.14713317511470403,0.1742180271065903
1.832,0.09604938624020565,0.13059526018089263
1.836,0.05134058809473019,0.08702859495824256
1.84,0.01889923267624738,0.04792161422302943
1.844,0.0009280508327231818,0.01794589437149008
1.848,-0.003634673248587572,-0.0005255378392113874
1.852,0.0017058941617027479,-0.008096370928228902
1.856,0.012138222951009636,-0.006032387904972403
1.86,0.024131581816358327,0.005693022594130959
1.864,0.03711698566215316,0.02773050007763267
1.868,0.052243536837426996,0.059101836509444006
1.872,0.07126016375555566,0.09695617332976969
1.8760000000000001,0.09727132481763934,0.13843153547511955
1.8800000000000001,0.13369622111563784,0.18092442265219932
1.8840000000000001,0.18007508164732378,0.22163938847446896
1.8880000000000001,0.23039021689895312,0.25822792277247597
1.8920000000000001,0.27654122599893904,0.2893171160150503
1.8960000000000001,0.31262503329785507,0.3149141345194235
1.9000000000000001,0.33697357124205296,0.33610032966702663
1.9040000000000001,0.3515349277998976,0.35339459872858536
1.9080000000000001,0.3590684854206432,0.36625092504656553
1.9120000000000001,0.36080897421126124,0.37411761815464306
1.9160000000000001,0.35714300143795463,0.37652744333579147
1.92,0.34921567347393334,0.37265469518395333
1.924,0.3385086316578272,0.36185660378437645
1.928,0.3257985286276255,0.3445526250227895
1.932,0.31031717865236463,0.3218809096605457
1.936,0.2896132536639151,0.2940434212919776
1.94,0.2616342985301756,0.260628679171649
1.944,0.22628430509755737,0.222902035414825
1.948,0.18483409020890518,0.18372493840365256
1.952,0.13984704626636257,0.1457931452543373
1.956,0.09544039512705349,0.11073236594598579
1.96,0.0559460304277577,0.07888463458373507
1.964,0.023758672921004864,0.05047412386609218
1.968,-0.0011881285339115921,0.026944965792453646
1.972,-0.019089168577850812,0.010082922062423672
1.976,-0.027791238014853725,0.001153537124504389
1.98,-0.02382770539402146,0.0016810780624121335
1.984,-0.0053007751336972,0.013498885398246063
1.988,0.02689957156966405,0.037729858297846475
1.992,0.06897323423304869,0.07375684706540198
1.996,0.11469613809577983,0.11838211093942919
2.0,0.1578497422963674,0.16542677705189424
2.004,0.1944350523865952,0.2065060456533525
2.008,0.22195453030020929,0.23468334473185326
2.012,0.23866957904643238,0.24849157195767768
2.016,0.2451419387395648,0.2516339237349239
2.02,0.2445281471024796,0.24987088554493653
2.024,0.24011799625183983,0.24763129347127033
2.028,0.23357218444243388,0.2451136038591073
2.032,0.22584647535448688,0.23949486794882469
2.036,0.21847092997065642,0.22990629739625534
2.04,0.2123953810788175,0.21936143671310604
2.044,0.20679573360370251,0.21216561253861332
2.048,0.20079821270290132,0.2106248458900284
2.052,0.1949891060393134,0.21316832417664022
2.056,0.1901898932531687,0.21603782121514414
2.06,0.1863200744125526,0.21699247907303465
2.064,0.18321271211864332,0.21539158800266733
2.068,0.1810838888668802,0.21009805864870468
2.072,0.17944176896754183,0.20107433512228368
2.076,0.1772666621281478,0.19208747551534344
2.08,0.17491901530260612,0.1880337359155655
2.084,0.17396978562824783,0.18958402545354436
2.088,0.175390888729952,0.192839279316386
2.092,0.17899129426131988,0.19387068981418087
2.096,0.18336129590461803,0.19179267915423015
2.1,0.18662456014880546,0.1878181802710328
2.104,0.18809954676337526,0.18357475977341298
2.108,0.18802551946793744,0.18068893930396746
2.112,0.18594770651322357,0.17993190200505538
2.116,0.18125116820098697,0.1806736565864968
2.12,0.1749676367760884,0.1820294516757206
2.124,0.16973827211620574,0.18362397323619128
2.128,0.16806710628292976,0.18529826004128158
2.132,0.1701390326172907,0.18689977488555454
2.136,0.1733287926057394,0.1881596737168676
2.14,0.17490275519075715,0.1890017839994509
2.144,0.17425757717564427,0.19012268212796513
2.148,0.17210719918811934,0.19195277696766588
2.152,0.16949413506570155,0.19260505221821989
2.156,0.16772878445993444,0.1888377354870039
2.16,0.16718566859957118,0.18039269986007178
2.164,0.16682772345159802,0.1718714215034629
2.168,0.16671030232007378,0.1687486094885582
2.172,0.16842357393542584,0.17200914735735862
2.176,0.17155846504295025,0.17770136597020003
2.18,0.17296854486117574,0.18139440764822123
2.184,0.17029229437901083,0.18128842588535599
2.188,0.16416727483795146,0.1781081839752534
2.192,0.157389081997932,0.175258937483195
2.196,0.15330695600869615,0.1776676901085159
2.2,0.1547519177648673,0.1875261249705631
2.204,0.16259471820475624,0.2016833159289131
2.208,0.1740302108446803,0.2137817799259425
2.212,0.1837567713641508,0.21838994348222984
2.216,0.18814668668729317,0.2142088326542877
2.22,0.18758569211275633,0.20507094207286314
2.224,0.18512705191243906,0.197012735355659
2.228,0.1842464604201055,0.1932764923804542
2.232,0.1868729980149717,0.19276723417122343
2.236,0.19136821410585592,0.19258684813506255
2.24,0.19325645167073113,0.1906195585626531
2.244,0.18912783708641223,0.18671088752126375
2.248,0.17907680083670163,0.18285606605621574
2.2520000000000002,0.16653976216753197,0.1812369628105408
2.2560000000000002,0.15716483236551837,0.18160890261603235
2.2600000000000002,0.15594892870252797,0.18231067281720015
2.2640000000000002,0.16321589812621196,0.18271725285290819
2.2680000000000002,0.1735371417220979,0.18298404370352417
2.2720000000000002,0.18005914593632388,0.18322598858703354
2.2760000000000002,0.18047359849059874,0.18351776552295052
2.2800000000000002,0.17788879612112973,0.18401600786307348
2.2840000000000003,0.17583950904015033,0.18536614008065744
2.2880000000000003,0.17479398014235126,0.18838861866989864
2.2920000000000003,0.17419005389431663,0.19260964424304827
2.2960000000000003,0.174582883919699,0.19532052394438537
2.3000000000000003,0.17640055344365835,0.19359165935904277
2.3040000000000003,0.17898949707112277,0.187842742263717
2.308,0.18155944196314278,0.18188336478368772
2.312,0.18340300689383504,0.17954539920205526
2.316,0.18323823912470827,0.1824552111340827
2.32,0.1804328045082093,0.18956182719139347
2.324,0.17722611135084465,0.19722054365874064
2.328,0.17752320085000362,0.20129859368390401
2.332,0.18254955212368396,0.20080473426353018
2.336,0.1885897963999763,0.19852394959679143
2.34,0.1902094755595607,0.19771059380750922
2.344,0.1859860213881921,0.1995211652786315
2.348,0.17990556282010628,0.2036304549211203
2.352,0.17772483786779292,0.20925313980058902
2.356,0.18302977344696836,0.21484853942257653
2.36,0.19471364147299308,0.21823778716028808
2.364,0.2064963455912534,0.2173532602628372
2.368,0.2092197973805583,0.21009685583163984
2.372,0.19476651196936956,0.19382082936419498
2.376,0.1612648565137591,0.16671075509129962
2.38,0.11642263821584153,0.13074269035590613
2.384,0.07386756596815269,0.09279594942634972
2.388,0.04626185499121904,0.06296768293446675
2.392,0.04153969835508864,0.051340663015375654
2.396,0.06138527799239224,0.06415171143816623
2.4,0.10138382265255674,0.10132556172496576
2.404,0.15386454384928117,0.1567920562847942
2.408,0.21028834915879235,0.22117257144200497
2.412,0.261889646250584,0.28416286378080025
2.416,0.3010399390085794,0.33505369529157525
2.42,0.3222419650855364,0.3641509703993009
2.424,0.32174917678205706,0.3654710606203495
2.428,0.29891863829663734,0.3384172335316997
2.432,0.2581888536391239,0.2883313646540173
2.436,0.20746066099950622,0.22563140628919376
2.44,0.15517167837966417,0.1627407035777486
2.444,0.10940724776879795,0.11035379636189391
2.448,0.07763822635498663,0.07541014978269112
2.452,0.06592686008177462,0.0607961057868176
2.456,0.07704638638322736,0.06636169914749579
2.46,0.10775751884913642,0.0898825238992238
2.464,0.14802511717444378,0.12579173726849868
2.468,0.18413944631181356,0.16478094763242845
2.472,0.2050010781865257,0.19807022951188014
2.476,0.20800931852716698,0.22232716559677712
2.48,0.1998066116003605,0.2392513527567779
2.484,0.19101915334614072,0.2510883824383068
2.488,0.1892044396001924,0.25756092000022845
2.492,0.19532413709394847,0.25657312267163324
2.496,0.2056309039382611,0.2473972323667586
2.5,0.2158464665631461,0.2330674815318705
2.504,0.22397161324172266,0.2195294986416767
2.508,0.23151009230570474,0.21347361900512807
2.512,0.2430987996270828,0.2209656235356683
2.516,0.2633132596636101,0.2448976812924477
2.52,0.2912148364001439,0.2810419276551246
2.524,0.3151581774933383,0.31555470204677594
2.528,0.3116815594870166,0.32471439729010365
2.532,0.2521807191775145,0.2782873684560181
2.536,0.11760854004607424,0.1518823448779676
2.54,-0.08199966943376691,-0.04925281541689486
2.544,-0.29257658703570144,-0.2694770741874932
2.548,-0.42471221489782796,-0.4126549302458582
2.552,-0.3938416626869766,-0.38857430401498827
2.556,-0.1687332360374092,-0.1649403642070687
2.56,0.203535209172774,0.208858495851737
2.564,0.6094155758975923,0.615723579403963
2.568,0.910981282889773,0.9150766889619277
2.572,1.0,1.0
2.576,0.8428064020762327,0.8416721282811686
2.58,0.4962804499977045,0.5001210161401781
2.584,0.08465877896381468,0.09774393095522815
2.588,-0.25271812190781895,-0.23128248792340766
2.592,-0.41771174462040206,-0.393569114943527
2.596,-0.38871421803458284,-0.3686085535587337
2.6,-0.21988453401335417,-0.2073489731850262
2.604,-0.005382665878722492,0.0013303611900450374
2.608,0.1710432279879852,0.17834632365278225
2.612,0.2699336297554975,0.28627609048216707
2.616,0.29715914793697085,0.32888341875646754
2.62,0.28288319140066465,0.3310205380194373
2.624,0.2579920134646325,0.31798525575031844
2.628,0.24079838441437595,0.3034657964106422
2.632,0.23607644592659272,0.2897454670550046
2.636,0.23976425485719854,0.2753951638432055
2.64,0.24466401217234646,0.2604555088030065
2.644,0.24616552632956346,0.2468870277418196
2.648,0.24482544030905617,0.2376616841638728
2.652,0.2443676038882796,0.23562461071212382
2.656,0.24865416950980412,0.24209161761644138
2.66,0.25935845382559974,0.25568163980537406
2.664,0.2731989111394768,0.27193362339296456
2.668,0.2813173597398664,0.28354185367721185
2.672,0.27418810476414657,0.2821969333435512
2.676,0.24913251754349708,0.2631538192789442
2.68,0.2123131791953563,0.22812895379487563
2.684,0.17228410884029088,0.18309017166813346
2.688,0.1333073961690745,0.13494743568127254
2.692,0.09536799618366731,0.09000521446858545
2.696,0.05855363901008581,0.05295176966807724
2.7,0.02632032400552209,0.025883811787471567
2.704,0.0038774312561951074,0.008791877318024444
2.708,-0.006333802840338798,0.0016426719479583074
2.712,-0.006179840535851522,0.0049493624740390985
2.716,0.0009748701998062437,0.018107287230842317
2.72,0.013179963314777776,0.0382490503304691
2.724,0.030313967822441334,0.0612332004065963
2.728,0.05356573521335806,0.08460939548841706
2.732,0.08440183036320215,0.10966932686827313
2.736,0.12231013231931609,0.13948761451319114
2.74,0.1642241362751018,0.17541646128889
2.744,0.2073091347261089,0.2160738384734997
2.748,0.2505004400050077,0.2577128746187618
2.7520000000000002,0.29226869525710386,0.29481951031985987
2.7560000000000002,0.3290922383098962,0.32317370866235784
2.7600000000000002,0.3572262001025064,0.34328079529704136
2.7640000000000002,0.3746565733611993,0.35898293489174704
2.7680000000000002,0.3815821847703418,0.37273275986865295
2.7720000000000002,0.38014919363986777,0.3833644253196291
2.7760000000000002,0.37271092122768223,0.38774400941568277
2.7800000000000002,0.35954497979971456,0.3833532463695257
2.7840000000000003,0.33904640764578287,0.36930065905728204
2.7880000000000003,0.3104209583648623,0.3456585870402191
2.7920000000000003,0.27569761405037796,0.3132725749871932
2.7960000000000003,0.2386904537744976,0.2745346991166493
2.8000000000000003,0.2019542822739182,0.23300835959079014
2.8040000000000003,0.16515510357102126,0.19206127872423595
2.8080000000000003,0.1269629175120639,0.1540917534651125
2.8120000000000003,0.08807978744097333,0.12023490610285048
2.816,0.05171594710432115,0.09020390637176678
2.82,0.022050091734044708,0.06283130277937543
2.824,0.0024286241598652225,0.03753017521302193
2.828,-0.0065278723447079745,0.015654184671987093
2.832,-0.006901972896100506,0.00085296847699734
2.836,-0.00030482327014891286,-0.0022218196367704834
2.84,0.014228949185628892,0.00921741035635737
2.844,0.03823374651702327,0.034280404546958465
2.848,0.07134545994673203,0.06919140580224847
2.852,0.1108299776196564,0.10916679521296047
2.856,0.15177930621810898,0.14969306781788005
2.86,0.18828559617507534,0.18628399186477962
2.864,0.21496432192153736,0.2146937508671114
2.868,0.22832604463632333,0.23341984395573867
2.872,0.22952344971245986,0.24457572459870747
2.876,0.22495409315261816,0.25093975322912443
2.88,0.22184122335002088,0.2537739252053661
2.884,0.22367832451075653,0.253416228780599
2.888,0.22922535249208287,0.24987785832205822
2.892,0.23426346106659945,0.2427731414644967
2.896,0.2346744157243641,0.23184731419359483
2.9,0.2289912846015052,0.218625257964987
2.904,0.21893432219502884,0.2073620861846468
2.908,0.20786288596652103,0.20257797191221272
2.912,0.19819643241340779,0.20534918849429284
2.916,0.19014797140486284,0.21272643333049257
2.92,0.1830617248452595,0.21966901291586072
2.924,0.17740704930212492,0.22113549399044596
2.928,0.17518436866322618,0.21478858801407097
2.932,0.17821011812486032,0.2030279767722698
2.936,0.18566456724052505,0.19121576141174668
2.94,0.1938587756592831,0.18370863232203893
2.944,0.19843688623937705,0.18159256010727187
2.948,0.1962260215710805,0.1830576218926372
2.952,0.1867804657642258,0.1852604120020509
2.956,0.17377335308558384,0.18600323981877587
2.96,0.16281912884417205,0.18472402884110872
2.964,0.1569055534697712,0.18290551975823255
2.968,0.15567231303277773,0.18299850035291554
2.972,0.15823069740196116,0.18603650647374126
2.976,0.16360998925852588,0.19024531900677943
2.98,0.1692740387515883,0.19251794545290268
2.984,0.17202269428199246,0.19139182368533691
2.988,0.17027600470578275,0.18791530500098963
2.992,0.165147431111915,0.18383179391480398
2.996,0.15980759919621446,0.1803530247620988
3.0,0.1573915893407829,0.17843825438997762
3.004,0.15899244091204778,0.1781755926319477
3.008,0.16337198424288113,0.17817303984575528
3.012,0.16827416098940717,0.17707301617578053
3.016,0.17197497978078724,0.174607977563898
3.02,0.173866590390243,0.17136236524620996
3.024,0.17433008457191113,0.16879993677484006
3.028,0.17484236313118862,0.16846559557569263
3.032,0.17733351715143475,0.17151348255605603
3.036,0.18220434984649558,0.17926091257800314
3.04,0.18768053917648087,0.19170824040321355
3.044,0.19174894419229394,0.2053806239458098
3.048,0.19399743550725024,0.21482751215189322
3.052,0.1947987967172673,0.2168047355964402
3.056,0.19308246166106424,0.21245954629038555
3.06,0.18657889803989525,0.20576737143314494
3.064,0.17482785440799908,0.2000521744070869
3.068,0.1608626434039262,0.19574863933643005
3.072,0.14945701616336238,0.19170621852392644
3.076,0.14404426623098732,0.1873976302298248
3.08,0.145612788772151,0.18317317148733858
3.084,0.15316606966308388,0.18001122931278735
3.088,0.1635387369162522,0.1788320026191068
3.092,0.17267069819576975,0.17927231904777186
3.096,0.17878729254095904,0.18026251325584086
3.1,0.18271128036858397,0.1816343670680609
3.104,0.18512539637917147,0.18383145383403576
3.108,0.18550775293793476,0.1867845806394257
3.112,0.1831207053791135,0.19014858540871882
3.116,0.178111498716494,0.1938094123335632
3.12,0.17278097340548237,0.19736975070506046
3.124,0.17092556337610643,0.19945856902769
3.128,0.17414070464052034,0.19826761843934082
3.132,0.18008085831118303,0.1931438969961683
3.136,0.18510686338050508,0.18552496037227906
3.14,0.18706076289131035,0.1780407564248423
3.144,0.18574057329697746,0.1729504386487093
3.148,0.18210027671271578,0.1718483836162672
3.152,0.17732849555777985,0.17519963951560968
3.156,0.1729658192568153,0.18084424590181603
3.16,0.17121382679925623,0.18496531536718752
3.164,0.17353718700982057,0.18598251134537547
3.168,0.17864853942763492,0.18617322195872243
3.172,0.18286106703709892,0.1885918218116529
3.176,0.18331464433723865,0.19413300179480952
3.18,0.180445174666916,0.20231104969167113
3.184,0.1766602804305395,0.21212659480325935
3.188,0.17412120785134722,0.22113034992329506
3.192,0.17460610821692635,0.22599302849466718
3.196,0.17886826926714328,0.22491800457646072
3.2,0.18549170151755923,0.21879262148903145
3.204,0.19245448821851596,0.2102685780501352
3.208,0.19888082561801856,0.20250487307489906
3.212,0.20431635304921492,0.19819426602045453
3.216,0.20835203370010213,0.1981841831877298
3.22,0.21078144306827218,0.20048447759377042
3.224,0.20978994863112965,0.20021909214157252
3.228,0.20059103572385073,0.19046498204000084
3.232,0.17810115299780516,0.16658287399078398
3.236,0.1418744083974075,0.13210696412177314
3.24,0.09853561840026281,0.0976036956022428
3.244,0.059301434125366814,0.07360782155852208
3.248,0.03524588099914694,0.06674164253111292
3.2520000000000002,0.03391787683719949,0.07963819116731408
3.2560000000000002,0.05755680586710432,0.11121308099399885
3.2600000000000002,0.10277386591326709,0.15684255846900252
3.2640000000000002,0.16156723936348794,0.20874080772635906
3.2680000000000002,0.22314532865322922,0.2575498069807989
3.2720000000000002,0.2767577197922424,0.2947611128835641
3.2760000000000002,0.3138618462887959,0.31484725210132813
3.2800000000000002,0.32866532222579714,0.3166819297692327
3.2840000000000003,0.31847465586030577,0.3018606730576334
3.2880000000000003,0.28461882299518937,0.2713399974707782
3.2920000000000003,0.23386773648813985,0.22668915614938734
3.2960000000000003,0.1772431403448278,0.17469423977135334
3.3000000000000003,0.1255885003072723,0.1273369470785326
3.3040000000000003,0.08728770094313032,0.0957690939006337
3.3080000000000003,0.06811860588490792,0.08495314856420344
3.3120000000000003,0.07007697866282103,0.09399039849554192
3.3160000000000003,0.09109282150621167,0.11895793101854624
3.3200000000000003,0.12570181543324277,0.15321307257892602
3.3240000000000003,0.1650398923001526,0.1874473854969685
3.3280000000000003,0.19891844283138194,0.2136191648675143
3.332,0.2204449466549543,0.2295235323932161
3.336,0.22843769343399356,0.23786184819642253
3.34,0.2260225275972192,0.24170645714033467
3.344,0.2177380737645498,0.2425454645862717
3.348,0.20770273831937214,0.2407145846305474
3.352,0.19989637563345952,0.23633279848397004
3.356,0.19806589788323903,0.2309274729549773
3.36,0.20389274874670216,0.22763270700832283
3.364,0.21650347534430026,0.22946081102240434
3.368,0.23462085461338988,0.23887860823279627
3.372,0.25838989407368684,0.25785194496091757
3.376,0.2879963000649266,0.28485324389043054
3.38,0.31778415891915546,0.31087530977350575
3.384,0.32938729319615856,0.31767413040534387
3.388,0.29318038001158353,0.27977045298309955
3.392,0.18211330639043966,0.17351776199355173
3.396,-0.006581738959399175,-0.00475345798806448
3.4,-0.2312229457416488,-0.21750777583961178
3.404,-0.40586824704670765,-0.382864297172666
3.408,-0.4349815725905364,-0.4078234659153891
3.412,-0.2663454157120583,-0.2407919738297355
3.416,0.07353356037117531,0.09381441230407916
3.42,0.48299357947189914,0.49792890606173335
3.424,0.8234281628852207,0.8357952506618256
3.428,0.9739735937947867,0.9878643144186547
3.432,0.8804404928396528,0.8994996870701499
3.436,0.5774458980979635,0.603475085287297
3.44,0.17401289148988042,0.20650333594947545
3.444,-0.19093064014614836,-0.154540796265642
3.448,-0.4038976392631445,-0.36766929990419295
3.452,-0.41934389092759605,-0.3884862285408035
3.456,-0.27206749360512616,-0.25132541759331484
3.46,-0.05190707050317922,-0.042839847962252486
3.464,0.14864588339520268,0.14764215382189505
3.468,0.2776428275857754,0.269076940149489
3.472,0.32977992362822706,0.31714400582169566
3.476,0.3271918226918946,0.31694673540021334
3.48,0.2989185510485479,0.2994145793319154
3.484,0.26848596614776676,0.2842884204139229
3.488,0.24925941403387464,0.27662454108685375
3.492,0.24397263904267952,0.2734445419186371
3.496,0.2476990071848253,0.2705894621499185
3.5,0.25356738479461716,0.265622635728076
3.504,0.2568381052112678,0.2588909042602423
3.508,0.25629327003201796,0.2538909704308654
3.512,0.25428104843204147,0.25500225321333514
3.516,0.25433040353867664,0.26391708726536334
3.52,0.2569101576072248,0.27831763297823797
3.524,0.2578818260774842,0.29163708517420006
3.528,0.2512536683440463,0.2936432581507207
3.532,0.2326210763663279,0.2750968777450946
3.536,0.2014496529888028,0.23496227760332022
3.54,0.16184381361709188,0.18246327416294794
3.544,0.12017722551244092,0.13018517018451203
3.548,0.08162129885848324,0.08602033694605371
3.552,0.04959041979992085,0.05219451648412621
3.556,0.02677323248228225,0.028158953771858952
3.56,0.014093234629193985,0.012251267976598257
3.564,0.009069510802770298,0.0029257553283543736
3.568,0.007713716127716541,-9.746345272398926e-06
3.572,0.00880400588378527,0.004406589719748499
3.576,0.015316998278982252,0.017029321564547617
3.58,0.031608063025543975,0.03796883559806341
3.584,0.059333155597861786,0.06668441565855976
3.588,0.0954785679031942,0.10166887185625106
3.592,0.13456841120782248,0.1402264161980058
3.596,0.17284293220281177,0.17958864914484107
3.6,0.2094080260884401,0.2186158283210935
3.604,0.24412261259602697,0.25757016012869194
3.608,0.27628452777028034,0.29582246617165664
3.612,0.30553674476560255,0.3312339699259794
3.616,0.3319433574579054,0.36148680541480904
3.62,0.3539489529388815,0.3842329871437271
3.624,0.36841170916766,0.39727017399950704
3.628,0.37314849030737673,0.40000053776266076
3.632,0.36727562925023216,0.3936539866419273
3.636,0.3507468593045022,0.3797897934678367
3.64,0.3257351689700596,0.3593836856270378
3.644,0.2965042709370642,0.33324018611532336
3.648,0.267210862042478,0.3023237543650408
3.652,0.24036302821616995,0.2678456895533854
3.656,0.21617447577001947,0.23161891382824384
3.66,0.1928625781153337,0.1953975760317006
3.664,0.16776032172370337,0.15943167519551737
3.668,0.1384703439686683,0.12305231611512779
3.672,0.1039600874492661,0.08722806814596762
3.676,0.065516391524437,0.05494887643394186
3.68,0.027666901106248476,0.029056951106408713
3.684,-0.0022093447901623264,0.011240507572780167
3.688,-0.017340562686140704,0.0022200860333048134
3.692,-0.016100788937225996,0.0022483156432444584
3.696,-0.0025351793299280834,0.011920883590267994
3.7,0.018546903436730933,0.03153881589114582
3.704,0.04593488464522655,0.05976136358693407
3.708,0.08088560102567621,0.09423581839881323
3.712,0.12320873925319176,0.13295700355269724
3.716,0.16928698949561438,0.17357885392139472
3.72,0.2126513159554566,0.21189701376631254
3.724,0.24563348568542964,0.24201884340917457
3.728,0.26228261574849343,0.25873391703551074
3.732,0.2619289403102456,0.2608607700526815
3.736,0.25001661805981823,0.25267937799725626
3.74,0.23433602396880837,0.2418418117218435
3.744,0.2196967399980707,0.2350687479688225
3.748,0.20641815809795294,0.23470873500627376
3.7520000000000002,0.19423014329209654,0.2386954134251824
3.7560000000000002,0.18576303436279162,0.2431525338296774
3.7600000000000002,0.18396066538257339,0.2450987481710305
3.7640000000000002,0.18763996571780361,0.243420417746127
3.7680000000000002,0.1921570415298688,0.23798073060202674
3.7720000000000002,0.19414256214145031,0.22870725942177716
3.7760000000000002,0.1940937388481494,0.21618958205917305
3.7800000000000002,0.19433047898780376,0.20228066626349994
3.7840000000000003,0.19636357133243765,0.18882394690750726
3.7880000000000003,0.20017046489976598,0.17699299176752792
3.7920000000000003,0.2035524801660893,0.16895445128502096
3.7960000000000003,0.202847823882794,0.16759988729777375
3.8000000000000003,0.19619155473324912,0.1730608892552481
3.8040000000000003,0.18515352650195327,0.1814154277664608
3.8080000000000003,0.17320693736711523,0.18788512383397804
3.8120000000000003,0.16359219379228374,0.19067940804898154
3.8160000000000003,0.15738258386426818,0.1910985127444107
3.8200000000000003,0.1532124602345899,0.1902985929296226
3.8240000000000003,0.14979446513466588,0.18785669088818402
3.8280000000000003,0.1480585999442261,0.18352353081815198
3.8320000000000003,0.1503232542814672,0.1785552783665889
3.8360000000000003,0.15764184466408349,0.17525526752490972
3.84,0.16775379366607046,0.17517003867155156
3.844,0.1758543165334827,0.17757315793602624
3.848,0.17831274763326976,0.1810621765172391
3.852,0.17584380262970556,0.18583333010340208
3.856,0.17252726394902607,0.19194003454640285
3.86,0.17206738882139283,0.19715257114190332
3.864,0.17518613872444688,0.19928268857745524
3.868,0.18004638885885593,0.1983857312771955
3.872,0.18444855102894953,0.1950665202629549
3.876,0.18682799603628264,0.18920760326417607
3.88,0.1865436230333306,0.18171437418370484
3.884,0.18440346496895077,0.17549037234776632
3.888,0.18166875946354866,0.1729092845478164
3.892,0.17890889961156597,0.17328463502746838
3.896,0.17648064957614729,0.1741845318765829
3.9,0.17504239410809497,0.1746321160055604
3.904,0.17506235306302131,0.17586409089414046
3.908,0.17595267267249293,0.17921035472950742
3.912,0.17586371302489545,0.18445912992205749
3.916,0.17305642562724288,0.19027907864982962
3.92,0.16830714163513383,0.195017941136578
3.924,0.16476070131303278,0.19722902892815108
3.928,0.16435303782949018,0.19672440531555502
3.932,0.1664083315654874,0.19491593088983294
3.936,0.16945629632494486,0.19318789833160377
3.94,0.17188844559485528,0.19158223979054223
3.944,0.17232269113561083,0.18980598333075194
3.948,0.17074683569629756,0.18866900609085135
3.952,0.1685637838864824,0.1900802789304219
3.956,0.16783240396061094,0.19559108159787364
3.96,0.17029868751246702,0.20419388695752505
3.964,0.17664727347980058,0.21217958556127559
3.968,0.1857325554906597,0.21588615694004276
3.972,0.19350965702223943,0.2137390406710804
3.976,0.19422108619700373,0.20628063602212343
3.98,0.1846163258177418,0.19568734388322961
3.984,0.1675573121306031,0.18451254818890228
3.988,0.15134873934573512,0.1744076684790119
3.992,0.144508279827825,0.16691594924326036
3.996,0.15005403554767183,0.16402961063991772
4.0,0.16415899216263075,0.16608842341865393
4.0040000000000004,0.17927362477111108,0.17101709414864308
4.008,0.1888255545396882,0.17678248865507507
4.0120000000000005,0.19105668959413147,0.18270010390178193
4.016,0.18901255702596576,0.18838937728070504
4.0200000000000005,0.18636170583834244,0.1932262623591645
4.024,0.18428081547241582,0.19677035044950908
4.0280000000000005,0.18258688643627186,0.1987036029164777
4.032,0.18148171746936703,0.1984262964404151
4.0360000000000005,0.18149023337389303,0.1957457902715649
4.04,0.18313882070122967,0.19238365813342484
4.0440000000000005,0.18627325919032134,0.19182688025449934
4.048,0.1895291041638587,0.19642659208112456
4.0520000000000005,0.19145316126543666,0.20477840151245608
4.056,0.1916890419952706,0.2130452782622856
4.0600000000000005,0.19116659579700945,0.2184666163917648
4.064,0.19156389202228974,0.2206872363720238
4.0680000000000005,0.19410487585319647,0.22087989986787648
4.072,0.19920301630030224,0.2204697962891009
4.0760000000000005,0.20604166292196546,0.2194793291400603
4.08,0.21030425062153735,0.21477155974349937
4.0840000000000005,0.20392671654440786,0.20012939215109715
4.088,0.17990777219369058,0.17036601012067365
4.0920000000000005,0.1386268847382237,0.12701881057396935
4.096,0.08987757202300806,0.07962506637396549
4.1,0.04807917366501768,0.04187234921579419
4.104,0.02559608944043945,0.026067404970686603
4.108,0.029892685921800943,0.038392020952479955
4.112,0.06257150870629236,0.0774676704237578
4.116,0.11796733951036509,0.13594911028747148
4.12,0.18435259063592002,0.2029797144627452
4.124,0.24846000069821272,0.2673150709594878
4.128,0.2992854719080533,0.31952459868867344
4.132,0.3295249241598297,0.35228539438799
4.136,0.3360879251992064,0.36092438253161463
4.14,0.31945079069890503,0.3442135470478769
4.144,0.28197200683583334,0.3044783793887138
4.148,0.22804981592045936,0.24832155186213556
4.152,0.16579545992587907,0.1867536324168937
4.156,0.10654513177634994,0.1319053676511326
4.16,0.06175154660535265,0.09266788863787578
4.164,0.03957654371154806,0.0734049282480862
4.168,0.043204124862823434,0.07515914513269006
4.172,0.07065720118153762,0.09664174683916582
4.176,0.11466509334650832,0.1335776638569275
4.18,0.16333222800600367,0.17722849236662963
4.184,0.2035119210460128,0.2156798668378277
4.188,0.22683913502219677,0.23932922404391466
4.192,0.2339670373556244,0.24575808758796902
4.196,0.23197355901691297,0.23916162780872785
4.2,0.22782007792947678,0.22642789074212466
4.204,0.2241857941809211,0.21390951458425111
4.208,0.2195594039844735,0.20606513807364113
4.212,0.21192113589848738,0.20571188361364734
4.216,0.20313132116328703,0.21382955969243667
4.22,0.199595579603163,0.22890347870404426
4.224,0.20817917329550473,0.24845412899434272
4.228,0.23141719759117696,0.27159402030808955
4.232,0.2657749429245555,0.298697501460361
4.236,0.30162623569196123,0.3264936443023252
4.24,0.32179427240083114,0.341332736698313
4.244,0.30061402026089423,0.31720581603684805
4.248,0.21141657339854159,0.22491051934635609
4.252,0.045330418543680695,0.05315833618834609
4.256,-0.16768816765068673,-0.16838221088938843
4.26,-0.3530340193573862,-0.36358124354067545
4.264,-0.41678494182944537,-0.43641334475237403
4.268,-0.29519327308787546,-0.320320499357863
4.272,0.0043493803828213995,-0.01963359303945167
4.276,0.3978501186337846,0.38271238806577124
4.28,0.7555356168879315,0.7548373986862695
4.284,0.9522701905269064,0.968028464817787
4.288,0.9167012305051039,0.9477695959182975
4.292,0.660056643392926,0.7028871720823155
4.296,0.27281836358631106,0.32194393032249913
4.3,-0.11047414044303228,-0.06195618156547422
4.304,-0.3653491583635684,-0.32365576856336287
4.308,-0.4269040378675689,-0.3941794418796787
4.312,-0.3120536981734522,-0.28609342317885933
4.316,-0.10288509936684032,-0.08114985420441068
4.32,0.10372618955964752,0.12088069890723019
4.324,0.24640313727048468,0.25684399954495896
4.328,0.31276213755037063,0.31591280551679857
4.332,0.321595081891775,0.3200154572696763
4.336,0.3012476889824396,0.29887010619247856
4.34,0.2748748372020071,0.2746966262562829
4.344,0.2538728442789582,0.25757433810647634
4.348,0.24081711446633136,0.24828257792511343
4.352,0.23601727599264666,0.24432024544226127
4.356,0.2392285360969364,0.24394060714354393
4.36,0.24719120415490292,0.24628902258172514
4.364,0.25404444467169696,0.2510437931897307
4.368,0.25606295598472295,0.2586261391196809
4.372,0.2549004312117671,0.268987292730962
4.376,0.2548762096487662,0.27972203541870466
4.38,0.25678299999856113,0.2858947033769115
4.384,0.25530020634628947,0.2821086596179425
4.388,0.24303608616600414,0.2651799425287391
4.392,0.216384129966249,0.2358144434628464
4.396,0.17803975142746564,0.19830193842912447
4.4,0.1349973514351841,0.1578261785071764
4.404,0.09419880921335033,0.11780261688918325
4.408,0.06021203204433667,0.08020285356768886
4.412,0.03523978423798502,0.0477460681066979
4.416,0.019120278121484757,0.024157065946619483
4.42,0.010274108533301796,0.011646903120709373
4.424,0.007337370786878461,0.009301073053316511
4.428,0.009656457743068447,0.01450891851695757
4.432,0.01739824121778044,0.025015269747197255
4.436,0.03163810221254426,0.039679777864585875
4.44,0.05335896261806594,0.05881937686004446
4.444,0.08228493432467232,0.0839416232816872
4.448,0.11718885029951376,0.11591468640447
4.452,0.15626123223974075,0.15408001121941117
4.456,0.1961417785524795,0.1974934858074333
4.46,0.2321467803132724,0.24479573235375796
4.464,0.2611653456164924,0.2924347377646932
4.468,0.28416044004549446,0.3346351272155814
4.472,0.305376253693719,0.3657297976736067
4.476,0.3284528388049437,0.38325241925643505
4.48,0.35244637699902337,0.3890068097305295
4.484,0.37176950310451096,0.38643230174345566
4.488,0.3804070314385839,0.3781552435526838
4.492,0.37587032646578855,0.36672995060105373
4.496,0.359401237940731,0.3547966185510767
4.5,0.3338156016175018,0.3422759884965596
4.5040000000000004,0.3021390250311382,0.3249548008077623
4.508,0.2672500154587687,0.2979547677424781
4.5120000000000005,0.23051246947251003,0.2602529906383715
4.516,0.191346039653582,0.21535481501061748
4.5200000000000005,0.1499126296920712,0.16875820408229614
4.524,0.10897249811111198,0.12547999987179215
4.5280000000000005,0.07239263993011713,0.08902971799054038
4.532,0.04318940370883828,0.06084992663384736
4.5360000000000005,0.023413553740066595,0.040184858197955364
4.54,0.014381633497272395,0.025208536322531838
4.5440000000000005,0.015427573661920713,0.01442382263175812
4.548,0.023068162484843446,0.0076844293229341165
4.5520000000000005,0.03283166765820833,0.007031851581522863
4.556,0.042544094301476765,0.016083325182287167
4.5600000000000005,0.05384574419713828,0.03735241448149962
4.564,0.07083752014312417,0.07027886808470307
4.5680000000000005,0.0975507662122288,0.11188283414966715
4.572,0.1346664326120428,0.1576710205539853
4.5760000000000005,0.1773305450885212,0.20166599228402715
4.58,0.21667117692156013,0.23731681888382172
4.5840000000000005,0.2434126405991821,0.259540412556871
4.588,0.2523470942723882,0.26641968768716295
4.5920000000000005,0.24523315663129064,0.2597215267128081
4.596,0.22865989214624705,0.24468345857520757
4.6000000000000005,0.21011407316814434,0.22896098973593815
4.604,0.19595091104134887,0.21969779795717814
4.6080000000000005,0.19030892122982523,0.21992875616640228
4.612,0.19405775898691902,0.22738889277806673
4.616,0.20402822367381268,0.2364235327491353
4.62,0.21409685842586357,0.2414402068571091
4.624,0.21889299428634668,0.2396350439668018
4.628,0.21680893816317992,0.2314587328214892
4.632,0.2095036704667126,0.2199682578257367
4.636,0.2002153135035143,0.20930115554052064
4.64,0.1925870609732092,0.20168038269130628
4.644,0.1887410668481284,0.19628775401665965
4.648,0.1880998570903305,0.19168908495101422
4.652,0.18846348737184737,0.18799760343002148
4.656,0.18764921454751327,0.18644261363624093
4.66,0.18470027726166394,0.18715139551911664
4.664,0.1799810475453365,0.18782407674139123
4.668,0.1742289267529633,0.18566789896334557
4.672,0.16826119045638865,0.17992771265532492
4.676,0.1636626228719078,0.17254519662444512
4.68,0.16301076649873214,0.1672767051803743
4.684,0.1679840350155657,0.1668144434645178
4.688,0.17673811752560908,0.1705983882669666
4.692,0.18429380299432152,0.17652314383898426
4.696,0.1857714775681838,0.18334862824712528
4.7,0.17897661127451414,0.19060491553824455
4.704,0.1652336307444917,0.19771553592765034
4.708,0.14943780966584708,0.20342766424220615
4.712,0.13854302793950302,0.20583677823033542
4.716,0.13782477111371771,0.20390588294751977
4.72,0.1475973461789417,0.19853829785934285
4.724,0.1630991368992074,0.19155715794917882
4.728,0.17735443361063874,0.18482909546197335
4.732,0.18511875663398247,0.1804764317333416
4.736,0.18539561359984869,0.18002736482290094
4.74,0.18095842139873075,0.18251868714118413
4.744,0.175664664533846,0.18465287097934846
4.748,0.1720954090225557,0.18375563763476266
4.752,0.17095846806734039,0.17989452643652637
4.756,0.17149333513691967,0.17520175830528895
4.76,0.17247004178844438,0.17233623286035038
4.764,0.173114575469959,0.17339697648008268
4.768,0.17316073664135034,0.17907673423950254
4.772,0.17254684883349114,0.18785637474963157
4.776,0.1710616417291142,0.1962498895376792
4.78,0.16912849605680513,0.20077639789874424
4.784,0.16891945124076457,0.19987837270572584
4.788,0.1725871126700913,0.19450559279462332
4.792,0.17928996570578293,0.18782419934310512
4.796,0.1850288763092287,0.18388452437628455
4.8,0.18585107468057238,0.18520263389107017
4.804,0.1812752991352733,0.19107397385318325
4.808,0.17464298320552607,0.1983439721449589
4.812,0.17054254598386764,0.20325532496249532
4.816,0.1711657785986025,0.202471756917602
4.82,0.1748855428096967,0.19473096529938716
4.824,0.1786340898405232,0.18301928675439938
4.828,0.1806066396095849,0.17329793185386677
4.832,0.18090425124966059,0.17006161635446482
4.836,0.18078451389715844,0.17383371699475525
4.84,0.1810692759200101,0.1819139287700655
4.844,0.18142747836870443,0.19014745780320808
4.848,0.18174757436743794,0.19491143417783063
4.852,0.18294807621927212,0.1948064537165033
4.856,0.18529389246874128,0.19128408686096088
4.86,0.18719739303901473,0.1876395753397495
4.864,0.18651721425449796,0.18668077045804155
4.868,0.18204074001522774,0.18957738039128924
4.872,0.17432730964451237,0.19603371236225997
4.876,0.166427247342529,0.20354670165077837
4.88,0.16222007690157203,0.2076919488479283
4.884,0.1628050831978709,0.20532710761548678
4.888,0.16627322200525807,0.19749647219203448
4.892,0.17108030349213732,0.1886732109384861
4.896,0.17740477515615982,0.18288743327370383
4.9,0.18474954198612914,0.1811769858012704
4.904,0.18995322128229963,0.1827285649410164
4.908,0.18971744787469524,0.18644504995152178
4.912,0.1843903535369309,0.19108467315990985
4.916,0.17770165654336378,0.19583562566545565
4.92,0.17402718572501286,0.20102923232018566
4.924,0.17649657704891086,0.20705850076056098
4.928,0.18586385152331664,0.21288777876325438
4.932,0.19916935050491302,0.21619175646255617
4.936,0.209776991167975,0.21416892280387012
4.94,0.20974362447856687,0.20398090111966982
4.944,0.1927174556354596,0.18363131900949803
4.948,0.15745337842192542,0.15374713539312324
4.952,0.11111266971616973,0.11884727426829511
4.956,0.06805883454015094,0.08697245367615758
4.96,0.04286503120153218,0.06741495297765177
4.964,0.043142294486214317,0.06741767827509948
4.968,0.06833077692368184,0.09040425513268247
4.972,0.11314224610749446,0.13541284616786342
4.976,0.1704588349726175,0.19569600277770527
4.98,0.23152257753335204,0.2589043407075544
4.984,0.2859953450177444,0.3114823954936006
4.988,0.32457514033824153,0.34377064179034766
4.992,0.3413295230555162,0.35157693913532784
4.996,0.33314139321796077,0.33534788393595494
5.0,0.2995308059544959,0.299264719531648
5.0040000000000004,0.24511345480826496,0.2499016480555214
5.008,0.18081480157120278,0.19446235234377518
5.0120000000000005,0.12012132907170048,0.1405196455706943
5.016,0.07361962776010333,0.09619795220944316
5.0200000000000005,0.04708446587883297,0.06821483317310961
5.024,0.04276260592696235,0.060341474105292114
5.0280000000000005,0.0601452946672818,0.07364919821067772
5.032,0.09438824642257115,0.10522323680378065
5.0360000000000005,0.1355127883306506,0.1465135581128083
5.04,0.172915749204533,0.1858781267488101
5.0440000000000005,0.20154452118651323,0.21470967009282016
5.048,0.22216144938100335,0.23161298930116403
5.0520000000000005,0.23665169743264403,0.240678185785429
5.056,0.2448850300023957,0.245864424392352
5.0600000000000005,0.24577917995987142,0.24755008682074298
5.064,0.23971781577265072,0.24393192797750674
5.0680000000000005,0.22873554208100666,0.23385467935057624
5.072,0.21551085764112377,0.21907141659904106
5.0760000000000005,0.2033915027174915,0.20568752775393295
5.08,0.19660316766475439,0.20216366456462098
5.0840000000000005,0.20011276822088786,0.2147557520192649
5.088,0.21854736473464387,0.24437829064534644
5.0920000000000005,0.2515819118460143,0.28515100628592216
5.096,0.28699455633156035,0.32231403021972804
5.1000000000000005,0.2982357474521913,0.3306758372035088
5.104,0.2518090258002361,0.2796296035421968
5.1080000000000005,0.12473404963839707,0.14815987004457698
5.112,-0.07187927618147072,-0.0528974954652055
5.1160000000000005,-0.27729952160094107,-0.26369215811612
5.12,-0.3961125489068539,-0.38817077821760815
5.124,-0.3454199625289682,-0.34283938651332313
5.128,-0.10338218192522619,-0.10619329973957536
5.132,0.2719999131718467,0.26539789088019683
5.136,0.6610120140248594,0.6562907712066748
5.14,0.9274587436604678,0.9326859209722544
5.144,0.9734925740600986,0.9939907923002307
5.148,0.7809649159242427,0.8146394211163479
5.152,0.4190566260502957,0.455983092087912
5.156,0.014574396865421724,0.04211582473938802
5.16,-0.30000933906519267,-0.2899033228629041
5.164,-0.43812141083928446,-0.44395600872066576
5.168,-0.3893215738865331,-0.3999885003786011
5.172,-0.21397007601953522,-0.21446589559254137
5.176,-0.003979033627506623,0.015969436700017825
5.18,0.16638794235687948,0.20643228256683321
5.184,0.26709243852691644,0.31737737847778646
5.188,0.30554393412307435,0.35411394257297335
5.192,0.3052338583997487,0.34434513196311367
5.196,0.28932375053740844,0.31557456024419284
5.2,0.27287002066789534,0.28524829329211965
5.204,0.2617535983036974,0.2615506319463192
5.208,0.25585416142102235,0.24704941847998962
5.212,0.253008630281796,0.2415348745903858
5.216,0.25182735163433767,0.2431208923122663
5.22,0.25232851815346513,0.24855955451120604
5.224,0.2547255552343519,0.2546178136467514
5.228,0.2588416406653693,0.2600993187773304
5.232,0.26471995122482994,0.26671831585571737
5.236,0.27184268149813695,0.27625586114703116
5.24,0.2763239542069449,0.28531804839948305
5.244,0.2705548285091337,0.28500341243326544
5.248,0.2483853116019723,0.2676595931533894
5.252,0.2106374678589975,0.2329678063290075
5.256,0.1640593322371373,0.18698686230318873
5.26,0.11618191821535029,0.13758054471617576
5.264,0.07290172934412475,0.0916952818898007
5.268,0.038279570442114386,0.053708944180876905
5.272,0.0134454356793825,0.02430069993379491
5.276,-0.003482024900981595,0.0024354322206665557
5.28,-0.014422002427032399,-0.011374488342841271
5.284,-0.018104933031405923,-0.01457046436442333
5.288,-0.010861221324102721,-0.004432929730478485
5.292,0.009150908863832852,0.019372806375006935
5.296,0.03915520406009576,0.05296886546164803
5.3,0.07314355115708593,0.08989565620998086
5.304,0.10606728229844054,0.1256293183620516
5.308,0.1376137943630058,0.15994503278631833
5.312,0.1715468987626545,0.19511083504650606
5.316,0.21040654068267384,0.23272196685873037
5.32,0.2521047213382883,0.27176631992266853
5.324,0.29169290193154773,0.3087734320883744
5.328,0.32450809165172845,0.3396979538237761
5.332,0.3481676008910426,0.3619697682426952
5.336,0.3626763748572699,0.37550523900296784
5.34,0.3688922390823648,0.38207971298224397
5.344,0.36742618361455337,0.3835940641248792
5.348,0.3587148578634527,0.38094140582799185
5.352,0.3440337831606839,0.3739061240722501
5.356,0.326155447611467,0.36137349335556324
5.36,0.30720971776804173,0.34158898361973833
5.364,0.2859506730765886,0.31314656188329004
5.368,0.2591180426571158,0.27618372351894194
5.372,0.22507750070426824,0.23220924211667704
5.376,0.18504181260019426,0.18354948299188334
5.38,0.14182582539686428,0.13351866887348307
5.384,0.09865305235365662,0.08601159427848515
5.388,0.05904455777814599,0.04448978005187931
5.392,0.02680115031621555,0.011866132437330368
5.396,0.005154963006716473,-0.009165670640820966
5.4,-0.0047628637771544025,-0.01625509789304036
5.404,-0.004814343069417304,-0.008041136867197651
5.408,0.0018357128001584844,0.014063792402631448
5.412,0.013966110246103725,0.04528045945522541
5.416,0.03323253220473288,0.08035790501625639
5.42,0.06135784545814338,0.11578827679691028
5.424,0.09753275383727211,0.14923941771691562
5.428,0.13894460581020485,0.1792177735772149
5.432,0.1806734299888213,0.20429877672384
5.436,0.21512423259839375,0.2216105473423693
5.44,0.23600653185640574,0.22860072426951805
5.444,0.24286750132073354,0.22736521673023624
5.448,0.2399096684685713,0.22474873121021877
5.452,0.23193275887774134,0.22616406369625808
5.456,0.22241470127756924,0.23067262878972294
5.46,0.21409840367001043,0.23407348971304542
5.464,0.2093212361317971,0.2349468795646945
5.468,0.20876093929077189,0.2355827049165633
5.472,0.21054696630712466,0.23862513202975122
5.476,0.21147538612871797,0.24380205590831516
5.48,0.20958220157672502,0.24740542057109072
5.484,0.20546091538506572,0.2453508486984588
5.488,0.20099264612743983,0.23668630572182758
5.492,0.19750600015494824,0.22388329426213183
5.496,0.19452157548561133,0.21064659148125853
5.5,0.1898082682990534,0.1997752608508201
5.5040000000000004,0.18206277993573305,0.19170569235388202
5.508,0.17298886963689042,0.18475021819207482
5.5120000000000005,0.16587718116498373,0.17775349669592577
5.516,0.16324109623634286,0.17180198977888028
5.5200000000000005,0.165385656026797,0.16876490568877878
5.524,0.17044983198922248,0.1694044154975718
5.5280000000000005,0.1765300469865818,0.172945161856501
5.532,0.1832981340508455,0.17707050787020884
5.5360000000000005,0.1910829683494899,0.17842189950825693
5.54,0.19912690912754405,0.17499762639111083
5.5440000000000005,0.2044756984718299,0.1685997626942055
5.548,0.20263947288656592,0.16361683516660142
5.5520000000000005,0.19105863107941579,0.16343655626569853
5.556,0.1724085901942205,0.16885267687735972
5.5600000000000005,0.15356602246895212,0.17852469532392568
5.564,0.14099338920901072,0.18924305394128638
5.5680000000000005,0.13701407949592248,0.19698453685079875
5.572,0.1400742643261097,0.19961362429095475
5.5760000000000005,0.14730374043030237,0.19818441647120677
5.58,0.15627044141355473,0.19543131009145776
5.5840000000000005,0.16579868687886057,0.1938584578368059
5.588,0.17605521270633173,0.1943114524364662
5.5920000000000005,0.1868903908226598,0.19594314030937388
5.596,0.19572188830292303,0.19812483363403643
5.6000000000000005,0.19844214322534048,0.20064982621394223
5.604,0.19269566690700124,0.2022825774394741
5.6080000000000005,0.17985736334760016,0.20161547724838225
5.612,0.1649474131555373,0.19885948937451148
5.6160000000000005,0.15412280662921218,0.1955290568856516
5.62,0.1509243043830597,0.19255882582223838
5.6240000000000006,0.15532272964926697,0.1895978297680061
5.628,0.1648104656457905,0.18648979719226677
5.632,0.17525829799594117,0.1838324773561686
5.636,0.18300004279845372,0.18180258816774786
5.64,0.18654853462847298,0.17967553747327192
5.644,0.1857492224329882,0.1766284415549353
5.648,0.181080921190526,0.17338489647260547
5.652,0.17428769909110198,0.1724964124616215
5.656,0.1679032731412209,0.17578378670073236
5.66,0.16362489544416836,0.18201413137062095
5.664,0.16200616720629357,0.1874505384360854
5.668,0.16336990392617134,0.1882696018538239
5.672,0.16760860924733323,0.18322982648512198
5.676,0.17301337335868872,0.17516538826101336
5.68,0.17705507580530044,0.1692975457745478
5.684,0.17903143900423601,0.16921467466287798
5.688,0.18054481922917476,0.17469118159704888
5.692,0.18328887415852058,0.1827337428714062
5.696,0.18732010669700272,0.18980585194942368
5.7,0.19094904076430197,0.1939180892893677
5.704,0.19185700564312547,0.19565947819351015
5.708,0.1886070457942166,0.19723481794726294
5.712,0.18149876802488007,0.20056920775550102
5.716,0.17254384144876544,0.20593072794425926
5.72,0.1646379900349113,0.21142184344829884
5.724,0.16019220262322365,0.21391537072363054
5.728,0.15994008902934076,0.21140168514149082
5.732,0.16283712162045627,0.20502893129457322
5.736,0.16726782616892444,0.1984551817855702
5.74,0.1726560520159206,0.19480397279825357
5.744,0.1799414196617708,0.19459732650366468
5.748,0.1899863627608629,0.19618047915402914
5.752,0.2012097556225858,0.1974375629413525
5.756,0.20934883817344052,0.1972288407660694
5.76,0.2104294197254457,0.19558953485338582
5.764,0.20387960510312952,0.19332372842234946
5.768,0.19260662106295912,0.19168886024280507
5.772,0.18084887370253733,0.19122479942294746
5.776,0.1726437364100064,0.19090823755224196
5.78,0.171381445208856,0.19005787662855234
5.784,0.17809678986660216,0.1902547626616955
5.788,0.18967416551861982,0.1936709699889032
5.792,0.19972559445459193,0.19942175549462848
5.796,0.2006513867832953,0.20237225079555454
5.8,0.1864050207710246,0.19604724956651998
5.804,0.15588721468108258,0.17635707698176595
5.808,0.1143138167254849,0.14419126370974578
5.812,0.07234922531095234,0.1069800327426842
5.816,0.04293775896617302,0.0769248539334566
5.82,0.035478096288785066,0.06558336808522269
5.824,0.05206685731163274,0.07905913259690234
5.828,0.08911830757565653,0.11688584206481889
5.832,0.1409095448592852,0.1727095718516516
5.836,0.2008644359745726,0.2350795532372183
5.84,0.26074748807015724,0.2907724027034846
5.844,0.3111405076020639,0.32974442485306366
5.848,0.3433955283054988,0.3465937229578919
5.852,0.35084204442820366,0.3391195781147134
5.856,0.3302124207983028,0.3081331219610066
5.86,0.28364249717590395,0.25847446710486355
5.864,0.21958127431533958,0.19943987296281795
5.868,0.15175686490100548,0.14306574818142725
5.872,0.0949644899646338,0.09981944006919896
5.876,0.059462726241350294,0.07505791296834818
5.88,0.04883290290972453,0.06926248434261417
5.884,0.06122927992696048,0.08016262530102236
5.888,0.09065052760129655,0.10424318226096818
5.892,0.12808141588146693,0.1373029238773773
5.896,0.1640634364264446,0.1734943062926526
5.9,0.1919101402282115,0.20496609983648661
5.904,0.20963885741952248,0.2256150061172475
5.908,0.2200100098482236,0.2354498236813738
5.912,0.2273421838408214,0.2395384417560047
5.916,0.23218727042503784,0.24273287260559706
5.92,0.23067134157966418,0.24607740170302717
5.924,0.2205474201548494,0.24756449636282252
5.928,0.2059730087722036,0.2454022122766626
5.932,0.1956943046240609,0.24098615765395337
5.936,0.1982715694801782,0.23894010369018615
5.94,0.21832067556421308,0.24439592623204454
5.944,0.25405969290987906,0.2607112464277386
5.948,0.2962041674849534,0.2874409145493477
5.952,0.32857045942349195,0.3158795725405208
5.956,0.32927784225331425,0.3248371982382714
5.96,0.27347222438475494,0.28384283299754
5.964,0.14285098261639573,0.1670720303088169
5.968,-0.055767216567375266,-0.024544027144402958
5.972,-0.2732744117745276,-0.24374358386887696
5.976,-0.4238330007842587,-0.40188729289862435
5.98,-0.4212389903852768,-0.40789804377888617
5.984,-0.22578002139323716,-0.21818159900892342
5.988,0.12701875429894538,0.1334211301839221
5.992,0.5322097234479899,0.5404637667957415
5.996,0.8542763380865515,0.8629697175150199
6.0,0.9807084192021034,0.9852085117868077
6.0040000000000004,0.8668548298154228,0.8644058691584844
6.008,0.5539714303159164,0.547079865064253
6.0120000000000005,0.1530349586362827,0.14836233867456694
6.016,-0.19929036948675005,-0.19479735108567053
6.0200000000000005,-0.39510407932056135,-0.37765930797997826
6.024,-0.3962021507852218,-0.367009566414768
6.0280000000000005,-0.2425988249697748,-0.20785387725935345
6.032,-0.02542339154213391,0.007728947728803615
6.0360000000000005,0.16383888952658077,0.19266808606020436
6.04,0.2771246833399237,0.3032556596205802
6.0440000000000005,0.31618074827374887,0.3415698965875713
6.048,0.3084060410730547,0.3334440274526025
6.0520000000000005,0.28274613418834393,0.3065919800543897
6.056,0.25906928143414154,0.27975225071197163
6.0600000000000005,0.24581532418957264,0.26132698957784095
6.064,0.2422050494393697,0.25341081082996575
6.0680000000000005,0.24387284620762895,0.25532757369335024
6.072,0.24696105291128134,0.2633604231367854
6.0760000000000005,0.24835275553381742,0.2710167479405794
6.08,0.2462450596667356,0.27265159939874484
6.0840000000000005,0.24255086866117614,0.2670770151290891
6.088,0.24198078517736965,0.2580384958024402
6.0920000000000005,0.2470647115274318,0.2501583572947894
6.096,0.2549529986090564,0.24395035991840652
6.1000000000000005,0.2580470965206523,0.23612033979404834
6.104,0.2478915958890564,0.22280935770513222
6.1080000000000005,0.22141175389478152,0.20134191075999297
6.112,0.18344655672721122,0.17200481035033843
6.1160000000000005,0.14170397706030236,0.13852432471773457
6.12,0.10106161423823834,0.10489955947560459
6.1240000000000006,0.06371363272754538,0.07271554541846359
6.128,0.03190711132710655,0.042543568256766306
6.132000000000001,0.008687083731420131,0.016531025058894366
6.136,-0.003646351779101664,-0.002210527279910779
6.140000000000001,-0.005074984539599425,-0.011495734014532744
6.144,0.002537278748935501,-0.009130397299413784
6.148,0.01687986700215105,0.007734568559252253
6.152,0.03660231291873384,0.03973249248698263
6.156,0.061382492251844,0.08274693562449831
6.16,0.09019458758628951,0.12959075404164966
6.164,0.12143182224278748,0.1746588627604524
6.168,0.1547484525448677,0.2166518452084918
6.172,0.1907540576367588,0.2563781051807643
6.176,0.22973613110886504,0.2934076680078619
6.18,0.27034921207333285,0.32623554535708355
6.184,0.3080493454730504,0.35386677158379776
6.188,0.3366574635942281,0.3753924346093396
6.192,0.35265983196014083,0.3890105801880108
6.196,0.3574503034387122,0.39284218160186857
6.2,0.35565537842666894,0.3870625745545655
6.204,0.35085751198199944,0.3743965696701108
6.208,0.3428649919096425,0.3571725474979923
6.212,0.32928210422707394,0.3351905544987066
6.216,0.3084538789564315,0.3080558546099921
6.22,0.2806072595780429,0.2770347242860818
6.224,0.2478247337988242,0.24342378932646924
6.228,0.21430319218050964,0.2078448288927126
6.232,0.18500521569814765,0.17115546449494023
6.236,0.16150280704898434,0.13447846860452706
6.24,0.1399615648845467,0.09967130695210669
6.244,0.11477182188736879,0.06990779706624828
6.248,0.08376786038993611,0.04785120500021778
6.252,0.04997129143319379,0.03351858345737724
6.256,0.01957327696272726,0.025184914429283722
6.26,-0.0009344540380981092,0.021941840491552345
6.264,-0.006404629162354958,0.02477192617178825
6.268,0.005801691655636265,0.03557870705196331
6.272,0.03386442792077804,0.0550115172269916
6.276,0.07076952239530643,0.08158685723560577
6.28,0.10783431549677869,0.11348629420521283
6.284,0.13989459535415816,0.14883667680451307
6.288,0.16616920113886935,0.18399085723704123
6.292,0.1865654369733596,0.21472718031287097
6.296,0.19959880970791133,0.23871892590492183
6.3,0.20504347244014087,0.2549685491680167
6.304,0.20599368588940448,0.26231024481900467
6.308,0.20658753069313218,0.26040019556284966
6.312,0.20933452899191773,0.25138933457882495
6.316,0.214466350998348,0.2391710041744899
6.32,0.22008310220833982,0.2273947212195757
6.324,0.22340654557652084,0.218577899667997
6.328,0.2230234828265052,0.21416547616385584
6.332,0.21958455123360432,0.21441335881191326
6.336,0.21429302832361485,0.21794356836930917
6.34,0.20808237406667263,0.2217364151546719
6.344,0.20247561770342148,0.22245380907969814
6.348,0.1991360855252151,0.21883771537683772
6.352,0.19773781359691145,0.21257710286993015
6.356,0.19609408458012823,0.20631948029347313
6.36,0.19274924252755854,0.20123573018871865
6.364,0.1879746839055556,0.19631877328869107
6.368,0.18274196923081742,0.18935078628870516
6.372,0.17792265511860106,0.17916215858957707
6.376,0.1740311745355736,0.16789942295745108
6.38,0.1715775291758268,0.16020854553291608
6.384,0.1714635232583257,0.15962446873716796
6.388,0.17389967886867375,0.16635482585951555
6.392,0.17725256939964185,0.17756378048510335
6.396,0.17881311685448265,0.18862078927083137
6.4,0.176255563987205,0.1950370658750924
6.404,0.16846906214049184,0.19470114671854732
6.408,0.15643765368575968,0.18902072710542916
6.412,0.14422252715363038,0.18208857526017463
6.416,0.13741850837843694,0.1783099506870398
6.42,0.13923644508460198,0.18022568637966585
6.424,0.14908497152638356,0.18796195801381432
6.428,0.16375757840503757,0.19969267684023118
6.432,0.17826321876518914,0.21193380555465668
6.436,0.1877091017495356,0.22010982570176552
6.44,0.18996525691819843,0.220201162688211
6.444,0.18604580241959856,0.21061754849562497
6.448,0.1786217045003995,0.19317509258470356
6.452,0.17090703214574243,0.1728628586562282
6.456,0.16612943555676374,0.15614156335582274
6.46,0.16643039422249228,0.1482095038175688
6.464,0.17136452956165904,0.15076612673665157
6.468,0.17776974232285236,0.16160296485539427
6.472,0.181607679810611,0.17621401718600138
6.476,0.18091101152397626,0.190275987965127
6.48,0.17806145679354413,0.2007201872949511
6.484,0.17785007921980234,0.2054061383722272
6.488,0.18226424422564658,0.20352606096553294
6.492,0.18886540533648355,0.19632901800103597
6.496,0.19384648782150982,0.1870087918083132
6.5,0.19467029999827679,0.1793824956379062
6.5040000000000004,0.1904110829584933,0.17592460167870705
6.508,0.18171534006018208,0.1773054301905912
6.5120000000000005,0.1714807567362009,0.18284071027904658
6.516,0.16418103245035343,0.19030064681083259
6.5200000000000005,0.16289135183086856,0.19683795307256302
6.524,0.16743327289738708,0.20130590401659854
6.5280000000000005,0.17533078633670995,0.2046663779046003
6.532,0.18295510197988496,0.20740358099754364
6.5360000000000005,0.18585291037942686,0.2076328589268679
6.54,0.18055149667656534,0.20290160049527173
6.5440000000000005,0.16803148132845047,0.193205173736406
6.548,0.1545532539805814,0.1816250391216585
6.5520000000000005,0.14703085532973792,0.1724718265434051
6.556,0.1476630909544121,0.16806171665745562
6.5600000000000005,0.15381256430245083,0.16705308969672172
6.564,0.1615915477727794,0.16734148140057803
6.5680000000000005,0.16860282334253962,0.16920296192937223
6.572,0.17436992320605427,0.17364780884490938
6.5760000000000005,0.1791762971728874,0.18022998087791087
6.58,0.18292595231349207,0.18809640406914596
6.5840000000000005,0.18527954743145436,0.19675749732287495
6.588,0.1865706537642906,0.20529436922208943
6.5920000000000005,0.18731292293984514,0.21246045863081808
6.596,0.186923880679712,0.21754577896364435
6.6000000000000005,0.1852891733829798,0.2203757606344805
6.604,0.1847756255541746,0.22024122869175922
6.6080000000000005,0.18773532570541418,0.21560172767590324
6.612,0.19319044802706853,0.2060536656244938
6.6160000000000005,0.1978877402408572,0.194224548616462
6.62,0.1993420982226748,0.1849536296918779
6.6240000000000006,0.19729977732416204,0.1821811921126184
6.628,0.19306360868169437,0.18596147404007013
6.632000000000001,0.18782805431156469,0.19302317776316058
6.636,0.18265218513528203,0.20028694235410116
6.640000000000001,0.17938646828996085,0.20621469689639382
6.644,0.1794299358851399,0.20935564222718872
6.648000000000001,0.18210772328406533,0.20815282794488565
6.652,0.1843100460418028,0.20149063338437112
6.656000000000001,0.18003909097643866,0.18748240782953451
6.66,0.1627203666515733,0.163347483537565
6.664,0.13151531589800203,0.12894699622905592
6.668,0.09464833941547757,0.09061333667362037
6.672,0.06498486663405911,0.06018712300520823
6.676,0.052805135266250636,0.04929572525936887
6.68,0.06268638411893179,0.06414034383719325
6.684,0.09420748353041875,0.10402279693110383
6.688,0.14249275166115827,0.16248685347423453
6.692,0.19894367120290668,0.22919688655504
6.696,0.25379581050316524,0.29195337439541125
6.7,0.2983689682870967,0.33929078124827194
6.704,0.32568402352193115,0.36309670661124316
6.708,0.3310866841533897,0.35991480866443504
6.712,0.31345560270977946,0.33108121332485996
6.716,0.2756023053753167,0.2822648139527322
6.72,0.2227961200902424,0.22250926180156472
6.724,0.16184446545075093,0.16293980934684282
6.728,0.10240791287419859,0.11446675309590959
6.732,0.056214220440517826,0.0844107145890387
6.736,0.032845265991340744,0.07457000163652228
6.74,0.036844524172242155,0.08275308309056584
6.744,0.06667952165236346,0.10529850102458527
6.748,0.11375773849210602,0.13676206771872268
6.752,0.163823135975266,0.1690876010017086
6.756,0.202015016123817,0.19495430066368047
6.76,0.21963172140134546,0.21232457568936325
6.764,0.21885975893591225,0.2237747975683131
6.768,0.2106047561415434,0.23169290055941105
6.772,0.2061460204994665,0.2359591137951531
6.776,0.2104213973070317,0.23576893013335232
6.78,0.2219896560483059,0.2316573565290887
6.784,0.23623518319155457,0.2254342592307581
6.788,0.24797404071213425,0.2195637397786374
6.792,0.25500729744246775,0.21763020047792359
6.796,0.2607550642516081,0.224239866699929
6.8,0.27115901416468424,0.2427494623030617
6.804,0.288839541869486,0.27256127172099154
6.808,0.30849394106623507,0.3065299932500165
6.812,0.3133764558561982,0.32711955522006475
6.816,0.27678963172115223,0.3053733290817786
6.82,0.17267124148494717,0.2110678474944827
6.824,-0.005484909148626316,0.03567422936984954
6.828,-0.2238883187069216,-0.18406206015630833
6.832,-0.40458453545784745,-0.3650104647869833
6.836,-0.45428652305019723,-0.4120269196415185
6.84,-0.31295675483153096,-0.2689430228152222
6.844,0.008275558184996479,0.047832219466855674
6.848,0.4204963692389112,0.4493651130482952
6.852,0.787163214566718,0.804514663498054
6.856,0.9798248381839589,0.9894137972052861
6.86,0.9312568981245091,0.9373689285666147
6.864,0.660387384564997,0.6666994708344518
6.868,0.26336907979047375,0.27366976302529755
6.872,-0.12306254426787011,-0.10660042057646602
6.876,-0.3750015061199674,-0.3542314224609273
6.88,-0.42980781395323475,-0.4099055573557763
6.884,-0.30658628108705555,-0.29300707141570526
6.888,-0.08856185392220806,-0.08361364930781201
6.892,0.12637033504294704,0.12494276415449401
6.896,0.275222670361855,0.2719713020696164
6.9,0.34347310976729895,0.3433622424070504
6.904,0.34769876753576834,0.35616397988877035
6.908,0.3160052611039543,0.3358866087949657
6.912,0.27503551246130864,0.30221102457362736
6.916,0.24231206099773672,0.2670277285380511
6.92,0.22515116130643698,0.23797458403895533
6.924,0.22288094768614886,0.22028785655806216
6.928,0.22980896600300293,0.2165159974851516
6.932,0.23886769760999615,0.22536344516635953
6.936,0.2451387539687646,0.24211691105378397
6.94,0.2480069452088638,0.2611974393313521
6.944,0.24911409531011763,0.2779181714431933
6.948,0.24846350559426522,0.2888964224634738
6.952,0.2443961989888448,0.29147121653236807
6.956,0.23504035952695035,0.282943023415017
6.96,0.2187142838748255,0.2619222467854081
6.964,0.19580004907648219,0.23034959130279198
6.968,0.16912264491186724,0.19297251196667342
6.972,0.14021520284641897,0.15493614660526878
6.976,0.10792272214609588,0.11950452725332905
6.98,0.07236004680844355,0.08681125350148289
6.984,0.03796456965517225,0.05515546812056327
6.988,0.011443592684664772,0.024430248125680176
6.992,-0.0025961033338582906,-0.0020455818693064787
6.996,-0.0036149632766864226,-0.01857764560577435
7.0,0.006461633596860361,-0.019651116412427116
7.0040000000000004,0.02569755918649408,-0.0032843668241262503
7.008,0.05266357728797444,0.0272086106465117
7.0120000000000005,0.08492574837137434,0.06552760862358653
7.016,0.11842395198351108,0.10658368045854871
7.0200000000000005,0.14991462997743166,0.14816745549538646
7.024,0.1795242106712751,0.18927137395137006
7.0280000000000005,0.2095359346379806,0.22855666678701958
7.032,0.24129571582613552,0.2644699887613109
7.0360000000000005,0.2736915674329463,0.2952717344399287
7.04,0.3032730898819751,0.3198618799249551
7.0440000000000005,0.32603156042023795,0.3395635754720152
7.048,0.3403398692464328,0.35692239678577153
7.0520000000000005,0.3477937995812266,0.3718727412865188
7.056,0.35092497019460245,0.3809334135608129
7.0600000000000005,0.3507858778566062,0.3810876412599522
7.064,0.346731492504196,0.3734550704743518
7.0680000000000005,0.3374081481882296,0.3618826619421136
7.072,0.3209090198975131,0.34801107312099244
7.0760000000000005,0.2952014836366115,0.32876983036097496
7.08,0.25985069653701665,0.29957671259992624
7.0840000000000005,0.21705095359961768,0.2596018867084142
7.088,0.17136459181831332,0.21280884790641097
7.0920000000000005,0.12815845384937918,0.16524664937957834
7.096,0.09095080770096708,0.12277250759311387
7.1000000000000005,0.06031106874011871,0.08882077262233445
7.104,0.03576870643789287,0.06257509209809653
7.1080000000000005,0.018058367503250405,0.04110586225718027
7.112,0.008267108801548018,0.023377513986472698
7.1160000000000005,0.005877169472319421,0.010663470243618134
7.12,0.009836734144180737,0.004876662098658224
7.1240000000000006,0.020691723285623853,0.0082540047415538
7.128,0.03999175657804699,0.022245062490116485
7.132000000000001,0.06779890844353065,0.04536119534263139
7.136,0.10145282504741848,0.07440981675005798
7.140000000000001,0.13738214531826798,0.10792348251950012
7.144,0.1732263751366485,0.14590921853478434
7.148000000000001,0.20613398924526605,0.18643834360548772
7.152,0.23064917045349675,0.22396230649940452
7.156000000000001,0.24215120108769783,0.2514603672582787
7.16,0.24161687059676074,0.26480301568584075
7.164000000000001,0.23440134426247683,0.2652597401814416
7.168,0.22575414010902772,0.2584022696634467
7.172,0.21902074045847986,0.25104651762354346
7.176,0.21602412554444883,0.24778422319755133
7.18,0.21653131937048276,0.24881068793211614
7.184,0.21744487802670243,0.2505761240646982
7.188,0.2149618887752156,0.24891888811621654
7.192,0.20822255130396106,0.24189806862889984
7.196,0.19937158816810685,0.23037845556699743
7.2,0.1908685816909641,0.2171732949758367
7.204,0.18410216947806957,0.20519211123418613
7.208,0.1794486685859984,0.1960875027254203
7.212,0.1763870144156947,0.19021144705950332
7.216,0.17385915103677396,0.18661785974438505
7.22,0.1714274106833873,0.1841308226003504
7.224,0.1700055468447812,0.183111146898975
7.228,0.17093956590498616,0.18486642210436366
7.232,0.1740595609887079,0.1886870245330572
7.236,0.17681436497394554,0.19080638769798175
7.24,0.17680597447935797,0.18809039521492532
7.244,0.17476609607124516,0.1815550110197124
7.248,0.17318463289006858,0.17443713170214314
7.252,0.17336441691309457,0.16885071781296057
7.256,0.1751026332841119,0.16646760246726378
7.26,0.17765571131436597,0.16974690848826435
7.264,0.18015349320174923,0.17942379272737163
7.268,0.18165297744598474,0.1920980011708886
7.272,0.18164684360718653,0.20179556137226973
7.276,0.18084482416504466,0.2037813779740687
7.28,0.1806211302812295,0.19750697711114595
7.284,0.18184028425738874,0.1865980072646347
7.288,0.18435347748196618,0.17629508333877042
7.292,0.18649172096993194,0.17076864116348167
7.296,0.18563631038264172,0.1715595964174872
7.3,0.18007416819154431,0.17720386712487923
7.304,0.1699646246029578,0.1841702736466011
7.308,0.1572704826068556,0.18864307712464656
7.312,0.14536146368860736,0.18849964375158668
7.316,0.13829662835204126,0.18454057627528786
7.32,0.13952624425666915,0.17951610351498726
7.324,0.14954647840942115,0.1762915416881905
7.328,0.1642533547334213,0.17740985495566575
7.332,0.17700035966964056,0.18423667590086112
7.336,0.1829647994479926,0.19514829334935224
7.34,0.18122584761007876,0.20603511240175343
7.344,0.17427799461646165,0.21282879381486364
7.348,0.16698775673424215,0.21345073877288634
7.352,0.16425247477530447,0.20850236332349725
7.356,0.16768946880805746,0.20037273163368874
7.36,0.17457225519649544,0.19163627761424107
7.364,0.18077954567979782,0.18414783183970207
7.368,0.18433636641876605,0.17897651224864597
7.372,0.1857865979528872,0.1769100529306309
7.376,0.18655926269384682,0.17848952923252837
7.38,0.18741606622333973,0.1829502494512676
7.384,0.18775458902636255,0.18789704180863098
7.388,0.18595748561874204,0.19085616711277864
7.392,0.18098498683607556,0.19116783235363677
7.396,0.17423439470358915,0.19041934857733644
7.4,0.16900602329552927,0.19065003275935277
7.404,0.16818438278906567,0.1920132504184573
7.408,0.17217137076768996,0.19297709862207446
7.412,0.17768652927945472,0.19255516676229356
7.416,0.17988934091333775,0.19105751278227223
7.42,0.17701269161665056,0.18880381375414168
7.424,0.17151174260960667,0.18558877390773176
7.428,0.16688054529489715,0.1818255747536841
7.432,0.16546548076587597,0.1790442523774416
7.436,0.1683696004203541,0.1783833884552548
7.44,0.17448102409411415,0.1791920004245675
7.444,0.18030636773803588,0.17985489860324155
7.448,0.18296711464258153,0.17957222560625574
7.452,0.18259610439549778,0.17916211654538428
7.456,0.1813851030406235,0.18043955425622737
7.46,0.1815437030274505,0.18460467252871315
7.464,0.1841105215577361,0.19128654756191277
7.468,0.18843973114133683,0.19880520053470518
7.472,0.1921633421413167,0.20457723784329818
7.476,0.19293587722268657,0.2061619920042541
7.48,0.19053142778289534,0.20331813440273727
7.484,0.18647754279366802,0.19853140872037933
7.488,0.18347937960729843,0.19520975532569107
7.492,0.18494681302845928,0.19640591450163547
7.496,0.1919786578915723,0.20414523859436207
7.5,0.2012854557187933,0.21785021162304563
7.5040000000000004,0.20759672958406017,0.23345460947322172
7.508,0.20656480594929016,0.24408830913344448
7.5120000000000005,0.19488222941299416,0.24148440183696795
7.516,0.17021549043746997,0.2189102516527397
7.5200000000000005,0.1334599109666943,0.17643005114008137
7.524,0.09161087271057711,0.12422826527690445
7.5280000000000005,0.05646687222104618,0.07820208433096187
7.532,0.03868726882593987,0.05100634923743619
7.5360000000000005,0.04364918163869547,0.04757267557803724
7.54,0.07142888665681713,0.06748369714944547
7.5440000000000005,0.1173292223850444,0.10853633618598235
7.548,0.1728668429597353,0.16643561575327426
7.5520000000000005,0.2283376495149969,0.23252736632163673
7.556,0.2754439255193135,0.29410199505786827
7.5600000000000005,0.3088854517683226,0.3381005772114065
7.564,0.32568457233751125,0.35583775220237146
7.5680000000000005,0.32308027604566125,0.3451682102725975
7.572,0.29879442486791885,0.3094711677952491
7.5760000000000005,0.25395410246939876,0.2562288656560505
7.58,0.19526230453704252,0.19606683588073293
7.5840000000000005,0.1340404714621959,0.14078315783615736
7.588,0.08240746376038821,0.09984351285472504
7.5920000000000005,0.04961877310980456,0.07791445788134621
7.596,0.04118010972017627,0.07536350846549755
7.6000000000000005,0.05872467613917465,0.08952929651951713
7.604,0.09789302913408782,0.11533620166184244
7.6080000000000005,0.14707291765004404,0.14586473278663115
7.612,0.19125353975685444,0.17366085670108822
7.6160000000000005,0.21913383287282806,0.19372178239031568
7.62,0.22786319809940347,0.20579098006901764
7.6240000000000006,0.22283071195815984,0.21311889431116482
7.628,0.21310810764890564,0.21939717710693984
7.632000000000001,0.20544588327132707,0.22589086861700425
7.636,0.20194612125295897,0.23082604909103455
7.640000000000001,0.202045060213091,0.23273790504216763
7.644,0.20441352929075984,0.2332832474260138
7.648000000000001,0.2081199191525065,0.23549713335087175
7.652,0.21497374063338826,0.24182083787840147
7.656000000000001,0.2302472142877534,0.25512696826049486
7.66,0.2581594278705326,0.27795221236418954
7.664000000000001,0.2951516549211064,0.30724643599188406
7.668,0.32601880581865195,0.32974386835911473
7.672000000000001,0.3245872262183922,0.3224428739850018
7.676,0.2610251793654592,0.25890273257483054
7.68,0.11744471259585398,0.12193032032174789
7.684,-0.09045047433586795,-0.076266333749619
7.688,-0.2979436924076021,-0.2762033866509691
7.692,-0.40705697283479914,-0.38342586027888936
7.696,-0.33725270358472104,-0.31845119815093015
7.7,-0.07498698144542659,-0.06652460607088917
7.704,0.3108373068807577,0.30767428232345884
7.708,0.6919983136285468,0.6823631968662727
7.712,0.9318155563828703,0.9262895302718379
7.716,0.9420517515804554,0.9518193499679277
7.72,0.7189329534302804,0.7496215627389409
7.724,0.3428053675328455,0.3921021538782221
7.728,-0.05505440395257788,0.0042542354226762225
7.732,-0.3442084718433367,-0.28803060734860286
7.736,-0.44643954012889575,-0.40744498106738525
7.74,-0.3636073870357297,-0.3496218069519441
7.744,-0.1663616274302484,-0.17500596746342212
7.748,0.04977626138378932,0.027866535129642322
7.752,0.2127542073091231,0.1882671331667194
7.756,0.2970624591543951,0.27872555520802145
7.76,0.31584268819112715,0.3092607391800939
7.764,0.2988422402146722,0.30567396369731337
7.768,0.2734737175527606,0.2911466217262235
7.772,0.25581245220685855,0.2792166336895039
7.776,0.24964587110145486,0.2749017852364608
7.78,0.2505501210285612,0.2774415256276732
7.784,0.25316535004209206,0.2828355736200192
7.788,0.2552949487044509,0.2863771270559823
7.792,0.2561381217789751,0.28472226339907536
7.796,0.2553497106296836,0.2780312906197191
7.8,0.25467079448369434,0.2708033536814731
7.804,0.25740112224327105,0.2685311000606112
7.808,0.26459836107777224,0.2719378329306277
7.812,0.2711740103963718,0.275457281303054
7.816,0.26702633005741383,0.27146749588700625
7.82,0.24436256189242833,0.2543996983664438
7.824,0.20365649634551009,0.2223781781461731
7.828,0.15225826014819055,0.1780143807257175
7.832,0.09974075306032759,0.12769402858890633
7.836,0.05455562377655987,0.07912000225726556
7.84,0.021813642126368826,0.03888447852722354
7.844,0.00265085310093105,0.010838438421846064
7.848,-0.00463931957867858,-0.004768513948415709
7.852,-0.003383084153707694,-0.010628773717935247
7.856,0.0028521966894405892,-0.009676867182808246
7.86,0.012714510560453585,-0.0019954859189474927
7.864,0.027944690143353768,0.015136595259796826
7.868,0.05053301313993419,0.043416701369414
7.872,0.08019220979985087,0.08079035095430176
7.876,0.1155352275534609,0.12287396104870729
7.88,0.1554878988247801,0.16594473093127204
7.884,0.1978847738586258,0.20846766603332756
7.888,0.23850614797293201,0.24966411519734732
7.892,0.2728454144882322,0.28739724451132864
7.896,0.2979607730086573,0.31936480337933926
7.9,0.3137387986694118,0.34545495349899635
7.904,0.3240349864291754,0.36693731679900354
7.908,0.33458177834567193,0.38410309892325367
7.912,0.3478613514448565,0.39606347288630284
7.916,0.3605690692560011,0.40142698487229356
7.92,0.36596599251014306,0.3978579456733504
7.924,0.35807006993673074,0.38277979341726187
7.928,0.33446648367293363,0.3558358809923605
7.932,0.29735256848551384,0.32032236597233954
7.936,0.2531668621530938,0.28137394358839884
7.94,0.21004770961494934,0.2418057286657802
7.944,0.17362121390390994,0.20090244859194728
7.948,0.14448848290152805,0.15829458633751758
7.952,0.11992575594772847,0.11689624115886921
7.956,0.09700022846111467,0.08108181810163662
7.96,0.0738421940245213,0.053877589320173724
7.964,0.050664106495226235,0.035987235565534625
7.968,0.030869909493733694,0.025684178921233203
7.972,0.019450460414939474,0.02035267396972129
7.976,0.01935738319480773,0.019773954599612287
7.98,0.029203281749290433,0.02688541548031398
7.984,0.044587092180139676,0.04460334167236013
7.988,0.0626202187604683,0.07263340361304116
7.992,0.08459577504078397,0.10702551011976191
7.996,0.11339080203288754,0.14221464177018972
8.0,0.14911540217621844,0.17391015990935021
8.004,0.18730089713043885,0.20058442867261417
8.008000000000001,0.2201944066825694,0.22220417012286342
8.012,0.24016926773423153,0.2378020562989691
8.016,0.24413918677620017,0.24531901325221162
8.02,0.23596824393641525,0.24429569348725888
8.024000000000001,0.22335037473056052,0.2378781956635001
8.028,0.21195212236658678,0.23095652339470152
8.032,0.20345434204699875,0.22663874118230587
8.036,0.19743059739655577,0.22543057493655616
8.040000000000001,0.19340814418662888,0.22623584220262427
8.044,0.19204969007739603,0.22696609846710625
8.048,0.19411861064925273,0.22532980507440725
8.052,0.19835134824422362,0.21960729767231468
8.056000000000001,0.20183980363896215,0.20942588053876943
8.06,0.20244658939947668,0.19672946441145345
8.064,0.1999682973370187,0.18547948880757192
8.068,0.19490095579715683,0.17950537405714817
8.072000000000001,0.18748617445182258,0.18021017801465367
8.076,0.17891133632454803,0.1861294562587199
8.08,0.17191551610372602,0.19442807557866493
8.084,0.16894722410796192,0.20260863189681233
8.088000000000001,0.1700232469791958,0.2087903330783638
8.092,0.17265944337478478,0.21105106050381628
8.096,0.17410579065968879,0.20772905976719658
8.1,0.17348941638407234,0.1988274012862672
8.104000000000001,0.17162798967218573,0.18706247593545
8.108,0.16962549549134542,0.17704934485310653
8.112,0.16798317534620844,0.17256166898753023
8.116,0.16673897575278818,0.17437795824219715
8.120000000000001,0.1661931277666282,0.18048969185670294
8.124,0.1669926681742755,0.1877379834314834
8.128,0.16957654061746896,0.19307318962539588
8.132,0.17365271688342832,0.19456156117109558
8.136000000000001,0.1779805614352814,0.19307279928665677
8.14,0.18106605987234126,0.19168119182402132
8.144,0.1823781067273913,0.19176659774189164
8.148,0.18242264584962697,0.19164790660340092
8.152000000000001,0.1815500743750056,0.18965921605517977
8.156,0.17940784397368748,0.1862006106739662
8.16,0.1758923491598372,0.18233689958600197
8.164,0.17204066402368956,0.17812105211403306
8.168000000000001,0.16933914329669464,0.173468774293426
8.172,0.16826466833668796,0.1701463160228105
8.176,0.1681587757124523,0.1708238291807831
8.18,0.16868331764834688,0.17601099515918706
8.184000000000001,0.17023230434005154,0.18367383404419102
8.188,0.17238381153606364,0.19123140342992628
8.192,0.17387354950204026,0.19644286544567535
8.196,0.17463643873486623,0.19753421225898293
8.2,0.17597993036691117,0.1945584552192714
8.204,0.1787133782128223,0.1900282294012241
8.208,0.1822199151849011,0.18632290882835423
8.212,0.18506641459595086,0.18372375518750217
8.216,0.18548711765564518,0.18218759946939622
8.22,0.1821495435438658,0.18228257585678076
8.224,0.17618159843230874,0.18349984979572276
8.228,0.17086852534053865,0.18438044260443487
8.232,0.1684343480264585,0.1848349099959401
8.236,0.16881427899653523,0.18647204007863083
8.24,0.17069799006250896,0.1903065310638703
8.244,0.17226626365327746,0.1950802236999749
8.248,0.17211026146526298,0.19784696379479172
8.252,0.17053702845365692,0.19645349030403736
8.256,0.16936501858644393,0.19162333546228782
8.26,0.17014886179229527,0.18624812707454397
8.264,0.17292337446288708,0.18362772093789026
8.268,0.17641619281045684,0.18601856145290396
8.272,0.17937036678918528,0.19307098530168698
8.276,0.181595316177944,0.20192788538506967
8.28,0.18343232105588125,0.20929217441104253
8.284,0.1843828174917581,0.21307238265933126
8.288,0.18274223567319048,0.21237454869810124
8.292,0.1768834818502305,0.20696740491554566
8.296,0.16736510184553843,0.1977389797788025
8.3,0.1579744586280558,0.18764511716680632
8.304,0.1535708826065738,0.18090014126465226
8.308,0.15636294858154898,0.1795531592696371
8.312,0.16475045744169936,0.1816303873806906
8.316,0.17498643552530768,0.1836786519261453
8.32,0.18332656517066837,0.18344172732162667
8.324,0.1877662536264162,0.18042935443864683
8.328,0.1888522273316211,0.1757779687797587
8.332,0.1886363114894014,0.17118143351862636
8.336,0.18896084352762577,0.16813939065927008
8.34,0.19063459449300568,0.16899168270099119
8.344,0.19288434872639715,0.17668072932359857
8.348,0.19424721902463493,0.19134851149398857
8.352,0.195074816693233,0.20915784708307128
8.356,0.19731196601753287,0.2252843904578763
8.36,0.20099302580104017,0.23558027916274527
8.364,0.20253824923057606,0.2369873902811055
8.368,0.19677283556663272,0.2282836357582403
8.372,0.17973840418264753,0.2088104983235124
8.376,0.1511224837021481,0.17830848171279756
8.38,0.11636816271165196,0.1402664721515816
8.384,0.08504599038713767,0.10328946159085106
8.388,0.06546858437951864,0.07740204476243595
8.392,0.06208343702160457,0.06969530926843093
8.396,0.07678576541672988,0.08346650728986216
8.4,0.1091292080463604,0.11833401352235873
8.404,0.1549932063409789,0.16880333394825842
8.408,0.20694798806206705,0.22500741199081675
8.412,0.25680325433428863,0.2765489692646894
8.416,0.2975695456883478,0.31470785139280877
8.42,0.3229635938249851,0.33317689575097
8.424,0.326654531070103,0.3295064957773275
8.428,0.30480872650357727,0.30479580041547427
8.432,0.2601432125450296,0.2625075588605619
8.436,0.20184716813038706,0.2091776588980656
8.44,0.14212051242964296,0.15398691252479124
8.444,0.09295889259936407,0.10613198691217596
8.448,0.0625947176939039,0.07327032758091367
8.452,0.05350042952290779,0.06068909548723633
8.456,0.06402251725409647,0.07015837944682235
8.46,0.08981678641559876,0.09942542284630251
8.464,0.1233798655997671,0.14140011544241582
8.468,0.1552296623059981,0.184314758646414
8.472,0.17839422849635111,0.2164815080213005
8.476,0.1924715400870629,0.2330958692288041
8.48,0.2024962717045855,0.2383033701511279
8.484,0.21336638421583864,0.23982789491318157
8.488,0.2258963379573724,0.24205049520796518
8.492,0.23784691299908767,0.24502627522183928
8.496,0.2466848144677929,0.24748665339131892
8.5,0.25103070487377543,0.24870394324993983
8.504,0.2516142263943715,0.24859418100632547
8.508000000000001,0.2518127189532189,0.2481673104298281
8.512,0.25661788934746443,0.2514852984890472
8.516,0.2699704284394906,0.2646733787563036
8.52,0.29027647368726184,0.28900025518436334
8.524000000000001,0.3061876774136374,0.31405853061566447
8.528,0.29654018350830147,0.31718091564737527
8.532,0.2349786785426906,0.26890841382095854
8.536,0.10112801672478944,0.14485444279272985
8.540000000000001,-0.09871497420708475,-0.052096099136951235
8.544,-0.3117576826597358,-0.2692654798951246
8.548,-0.4455789109932258,-0.41151314112784754
8.552,-0.4125826922976895,-0.38817844057527084
8.556000000000001,-0.18300922606673353,-0.16717550423513627
8.56,0.19207964809280265,0.20033329077406425
8.564,0.5976967282447381,0.5969285064337699
8.568,0.8983473488532481,0.8872348681249109
8.572000000000001,0.9896088272013237,0.9717534038732734
8.576,0.839502739065511,0.8228051239991727
8.58,0.5022817943518783,0.49333383187862334
8.584,0.09685597617048414,0.097047377561297
8.588000000000001,-0.2415586226170079,-0.23493427327721006
8.592,-0.4146962188518236,-0.4044124173712482
8.596,-0.3961468278727678,-0.3826619521420319
8.6,-0.23425147627584086,-0.21639441519195235
8.604000000000001,-0.019762611659324136,0.003467254907028039
8.608,0.1647685802116774,0.1928211555532151
8.612,0.27896194217079495,0.3092989901506078
8.616,0.32441985073953816,0.35318679980050427
8.620000000000001,0.32434040833959354,0.3486270455759575
8.624,0.3039250540048293,0.3237522358892988
8.628,0.2805642757644091,0.2972304003109332
8.632,0.2625705780154324,0.2752006501714104
8.636000000000001,0.2517923538266791,0.25763038154227513
8.64,0.2465869755715111,0.24528536098468678
8.644,0.24458987416371225,0.24024681354032107
8.648,0.24403308494389608,0.24253706645655337
8.652000000000001,0.24332707587861702,0.2496406164862286
8.656,0.24217792741486432,0.25970489285704645
8.66,0.24283467205868403,0.27286439034504006
8.664,0.24713008775181455,0.2881789641265109
8.668000000000001,0.2518257825614203,0.30013676051393534
8.672,0.2487432891293455,0.29933493040149806
8.676,0.2314150764215115,0.27828567389378134
8.68,0.2008532956514213,0.23726629473481675
8.684000000000001,0.16332648570523545,0.18371439966165148
8.688,0.1242864143963569,0.12675873216830524
8.692,0.08615397623505827,0.07376858424229904
8.696,0.051116761654500076,0.030636193167238313
8.700000000000001,0.023904713445972225,0.0016822804955862747
8.704,0.009302369769028207,-0.012174113219898808
8.708,0.007043358516841236,-0.013405696574744108
8.712,0.012158914338879612,-0.005251411068660228
8.716,0.020617604077534546,0.009999041837990719
8.72,0.032242925533243705,0.031087983810032194
8.724,0.04891167332577728,0.05757470870703285
8.728,0.07214522347841168,0.08919563456043567
8.732,0.10209998492137151,0.12505928194303362
8.736,0.13734162553718599,0.16340740875602044
8.74,0.17476665106029698,0.20246667229219506
8.744,0.21032749704895437,0.2411475509798371
8.748,0.24086901847563968,0.27837228042198725
8.752,0.2660159582338435,0.312581236456144
8.756,0.2884187584166913,0.3418549407821052
8.76,0.3109266681418792,0.3640345931591005
8.764,0.33325813466345733,0.37750971520990007
8.768,0.35224730844524843,0.3822010697622149
8.772,0.3640977638066536,0.3795565881457432
8.776,0.365758350908747,0.37164913055673776
8.78,0.35642840827980704,0.3597167690019276
8.784,0.3386288193971134,0.34331393544551836
8.788,0.3160436132632789,0.3212922786113235
8.792,0.28981125945844277,0.29300507914029583
8.796,0.25836861718572113,0.2586517447339809
8.8,0.22096005624726534,0.21987136581274935
8.804,0.17986466652992172,0.17956257927831865
8.808,0.13913287209512792,0.14005741621032253
8.812,0.10180680790830676,0.1024375373264228
8.816,0.06920680086562703,0.06816676605151151
8.82,0.04278985197356633,0.03995097093953892
8.824,0.024335286129583578,0.020187240931140327
8.828,0.01416958620150588,0.009408990183338073
8.832,0.011296369174894405,0.0072856205372477945
8.836,0.014995826424535785,0.01468298204522167
8.84,0.025432366348640434,0.03256124201076993
8.844,0.04365115784399154,0.05890536307162875
8.848,0.07066314833049736,0.08946895302152158
8.852,0.10491959901982861,0.12144918710522834
8.856,0.14201080116994924,0.15431016228667427
8.86,0.17724445016367762,0.1870089465523881
8.864,0.20619465869851794,0.21620933306010248
8.868,0.2245986392448256,0.23842663941733555
8.872,0.23097669570432,0.25241858323732114
8.876,0.22828788598369543,0.258190855960869
8.88,0.22166258108322934,0.2559352829886925
8.884,0.21524813615530003,0.24738522570343813
8.888,0.2111476259016929,0.23640351985562758
8.892,0.20965951768873325,0.22732921049986543
8.896,0.20956802846462685,0.22314573244584124
8.9,0.208687215117225,0.22408899867760557
8.904,0.20507186195134208,0.2270320216066397
8.908,0.19883042929352834,0.22724113019007963
8.912,0.19268954883743628,0.22174486180901343
8.916,0.18981544360143454,0.21135157331805932
8.92,0.1909955245732069,0.199820842632086
8.924,0.19366925446260264,0.19141319283240343
8.928,0.19352720296493553,0.18878813388861326
8.932,0.18821603936489106,0.19172988719268313
8.936,0.17957197079032383,0.19723194322539928
8.94,0.17141905335326735,0.20169204777166105
8.944,0.16626696065130053,0.20333689564950452
8.948,0.1646325753282667,0.20243638750993198
8.952,0.16607736935092454,0.20022715425901438
8.956,0.17032034110046013,0.19814557181702463
8.96,0.17673481199951913,0.19674277654368155
8.964,0.1828149327815718,0.19520791748633015
8.968,0.18568443703997883,0.19252571986394962
8.972,0.18514899538737684,0.1879906045909847
8.976,0.18299492151684982,0.18136765377530129
8.98,0.18002825373694908,0.17406355768674286
8.984,0.17552145344612846,0.16886119815261913
8.988,0.16962938112631187,0.16785284898130404
8.992,0.16506040350125595,0.17110388288830958
8.996,0.16478498333486802,0.176654170090508
9.0,0.16880900265674392,0.18139948697942532
9.004,0.17442382014306923,0.18308820132802062
9.008000000000001,0.17855902072067753,0.18203333577452052
9.012,0.1795655769740081,0.18004753246497862
9.016,0.17798991607953085,0.1782726578855811
9.02,0.17589999894014485,0.17677509381871603
9.024000000000001,0.17491892848685575,0.175488575971825
9.028,0.17504419171510466,0.17497913893094252
9.032,0.17512400680937956,0.17618708135873673
9.036,0.17348885305320882,0.17982611159115502
9.040000000000001,0.16946673417924418,0.18558292712981794
9.044,0.16501149516202163,0.19150178692020647
9.048,0.16262396568007986,0.19520290741510737
9.052,0.16250697507468992,0.19567009735345597
9.056000000000001,0.16338533173273828,0.193691422170426
9.06,0.16378184816639663,0.19149367576830922
9.064,0.16253074715022886,0.19127537276608164
9.068,0.16056274738715914,0.19289918347041368
9.072000000000001,0.16047464675032264,0.1942824172640636
9.076,0.16328610691808843,0.19452033494191046
9.08,0.1677385552785311,0.19470389217590145
9.084,0.17216429334182104,0.19579063547884235
9.088000000000001,0.17581831700873463,0.19733169861460498
9.092,0.17924121484973954,0.19811465368761305
9.096,0.1834565243966373,0.1972383244007001
9.1,0.18800251813870994,0.1948746781299482
9.104000000000001,0.19047590032783157,0.19185630316039726
9.108,0.1892277525488657,0.18813082803622794
9.112,0.18516739973487284,0.18291785008936223
9.116,0.18043148880829518,0.17662686580314046
9.120000000000001,0.17728236321393953,0.1710719761216768
9.124,0.17789463644588577,0.16828482762170371
9.128,0.18300760350100642,0.17033264458771247
9.132,0.19028616274275967,0.17824970299585274
9.136000000000001,0.1949680228138344,0.1899211884044394
9.14,0.19333389718049876,0.20135845671128294
9.144,0.18596038244167423,0.20979514734136395
9.148,0.1771604645978735,0.21382405259244952
9.152000000000001,0.17110574775413512,0.21230051137076367
9.156,0.16896859877805803,0.20516671835643763
9.16,0.16974013869047178,0.1948776891987285
9.164,0.1725713969662972,0.18568424370014647
9.168000000000001,0.17699836451936868,0.181119054286772
9.172,0.18169621115415224,0.18222840267700247
9.176,0.1850595781056812,0.18759916930463105
9.18,0.18627620423874225,0.1945919920970145
9.184000000000001,0.18476539112161094,0.20071455836812335
9.188,0.18032017252610189,0.20418245932558743
9.192,0.17449429397037886,0.2040890157062203
9.196,0.17077101834686004,0.20109410266732253
9.200000000000001,0.17271167705179313,0.19753889132111668
9.204,0.18071080021237007,0.19617953724950832
9.208,0.1907103212891581,0.19902730064440366
9.212,0.19806807185124486,0.20626901597514746
9.216000000000001,0.2012237554005274,0.21488540665162326
9.22,0.19962197437509266,0.2189935031238015
9.224,0.19086797695572688,0.21210951552732782
9.228,0.17230083917042838,0.1898368901450831
9.232,0.1441194678140516,0.15303331944653165
9.236,0.11031019519908147,0.10957076289586531
9.24,0.0777545000113522,0.07109586232177323
9.244,0.05426293007471994,0.047079491230413995
9.248,0.046383400065311164,0.042662712893622334
9.252,0.05843843179509478,0.06014621402057663
9.256,0.09129025911203903,0.09898211516469324
9.26,0.1407427245514392,0.15493860336744203
9.264,0.19846483066129927,0.22072290353408386
9.268,0.25459891591142214,0.2861680220242009
9.272,0.2998071206077133,0.33945364850538384
9.276,0.3273622845089599,0.37104133751007295
9.28,0.334395726162535,0.3758298274741172
9.284,0.3201469946166844,0.3527974175270998
9.288,0.2846890054149096,0.30575861225391376
9.292,0.23178484279886402,0.24356427444511874
9.296,0.17143609027322704,0.17753267718667654
9.3,0.11718873717534861,0.11851224694418439
9.304,0.08008357326597304,0.07524127861856655
9.308,0.06463158772876021,0.05348716174776036
9.312,0.06956673045111939,0.055350374888529785
9.316,0.0909573112819817,0.07835356954457429
9.32,0.12334308186164966,0.11525915653435548
9.324,0.15866590746092135,0.15608928797449861
9.328,0.18771489062874824,0.19204130044472878
9.332,0.20486702215241648,0.2191007952342261
9.336,0.21047998927773848,0.2382154355781667
9.34,0.20887050245021688,0.2513742608415417
9.344,0.2049240992110397,0.25797435005499847
9.348,0.20177017856755364,0.25599091823752285
9.352,0.2006234278436776,0.24623871360154936
9.356,0.20191639181324605,0.23382475504009936
9.36,0.20617489891401242,0.2253605953262603
9.364,0.21447483593508299,0.2260056185719279
9.368,0.22857425088741445,0.23840098040188873
9.372,0.2508009129065667,0.26222952603896577
9.376,0.28183311161432645,0.29310748069361314
9.38,0.31506370892997726,0.3202229895148001
9.384,0.33174990327004505,0.32444125833740545
9.388,0.3024424882260772,0.28075202629126816
9.392,0.1984182554933085,0.16787253545303837
9.396,0.014365673225030351,-0.01403826699054711
9.4,-0.20851333355733337,-0.22439177587030268
9.404,-0.38403239520947463,-0.3824405868930457
9.408,-0.4183980038484423,-0.40013412786652425
9.412,-0.2608322491772096,-0.2299823413236025
9.416,0.06463637020945989,0.10339522460643158
9.42,0.46240520063291135,0.5044285987290724
9.424,0.8004689534669918,0.8392573871901252
9.428,0.9604103729747884,0.9882979635013129
9.432,0.8835959305351877,0.8971575087787687
9.436,0.5964861583253993,0.6001065419914606
9.44,0.20096174864503547,0.2041715792699701
9.444,-0.16747019213344783,-0.15583136116536322
9.448,-0.39385015813352997,-0.3699025240737692
9.452,-0.42688263424837003,-0.3926022984334543
9.456,-0.29355563049577615,-0.25511022239999825
9.46,-0.0783094189605591,-0.042495093521634164
9.464,0.12572572893125367,0.15493795308222658
9.468,0.2626013765522366,0.2840636784153543
9.472,0.32467755084486405,0.3374791455498989
9.476,0.33359860119038043,0.33617729175745836
9.48,0.316718794093527,0.3091008394105037
9.484,0.292915476479912,0.2797438942463579
9.488,0.27013948642185026,0.2602303103657231
9.492,0.2506449532477697,0.2517525628293653
9.496,0.23587517024761606,0.2500929535272245
9.5,0.2275733175452177,0.25167421041346305
9.504,0.22648757785440932,0.2552810979424647
9.508000000000001,0.23120650718045477,0.25995180587152844
9.512,0.23955454314886437,0.26331339600864667
9.516,0.24981261771603203,0.2632701358859164
9.52,0.25908021398055703,0.2601282571997048
9.524000000000001,0.26308250165591796,0.2550236126786223
9.528,0.25881382529518104,0.24716946816929197
9.532,0.24550696763762492,0.23441696170441384
9.536,0.22321067220041435,0.2154939253952055
9.540000000000001,0.19202216381428694,0.19025021464910385
9.544,0.1530174803230704,0.1591563254522228
9.548,0.10931574874726624,0.12386588249325614
9.552,0.06567020241807442,0.0872672136662267
9.556000000000001,0.027524716338432675,0.052878085174269396
9.56,0.00020855456331880795,0.024824905646169793
9.564,-0.013423940586983929,0.006986318255448376
9.568,-0.0146763789770743,0.0010988599324182058
9.572000000000001,-0.006326407093450115,0.006983464454570099
9.576,0.010449632000673281,0.02424632761359735
9.58,0.03522637599167311,0.051423678154683294
9.584,0.06640612903816456,0.08411544725841469
9.588000000000001,0.101042971308404,0.11688343704165005
9.592,0.13620754619629882,0.14749876556571584
9.596,0.17012311685046932,0.17839064571845165
9.6,0.20152520701085508,0.21366227883405764
9.604000000000001,0.22983396859777838,0.2545109150792375
9.608,0.25669114976818896,0.297686697006766
9.612,0.28467568001424115,0.3374718471743934
9.616,0.313812533371465,0.3686298721466674
9.620000000000001,0.3406068846369972,0.38872403117942533
9.624,0.36052951398240585,0.3974967923576491
9.628,0.3707617064703723,0.3948699132639175
9.632,0.370932608458576,0.381647168963523
9.636000000000001,0.36247269647093794,0.36089040979933307
9.64,0.34725436072642935,0.33669375929459067
9.644,0.3259106622156196,0.31206527506528436
9.648,0.2979892976036298,0.2879508368537791
9.652000000000001,0.2642409114707689,0.26333071564502997
9.656,0.22687974194270555,0.23638879953798186
9.66,0.18757830325325675,0.2059227346169321
9.664,0.14741588944128736,0.17194300512725658
9.668000000000001,0.10808981579864341,0.13559242687465178
9.672,0.07223063950778763,0.09876234796958983
9.676,0.043053479578452514,0.06391485010595432
9.68,0.02270570851264697,0.03349203446207194
9.684000000000001,0.010681132934351467,0.008910591499713849
9.688,0.005123394982218699,-0.008445686458381174
9.692,0.005261207977742988,-0.015469157798020716
9.696,0.01156319376077386,-0.008984538985142954
9.700000000000001,0.025025409823953293,0.011235533353127769
9.704,0.047493767390024644,0.04266159060900132
9.708,0.08016441295202159,0.0824144237186768
9.712,0.12042339366798172,0.12828434869970096
9.716000000000001,0.16200695813544863,0.17700567409502632
9.72,0.19822821097503907,0.22229036952945513
9.724,0.22407916476575696,0.2559937053255279
9.728,0.23729595227987765,0.272572100132052
9.732,0.24003895491341543,0.2730606148659289
9.736,0.23819768608316116,0.26385098221412884
9.74,0.2369115454436741,0.2517163115418728
9.744,0.23763340957481138,0.24103543312670617
9.748,0.2393807747911474,0.2341572848965947
9.752,0.24033621448181552,0.23210173369673548
9.756,0.2377005541327455,0.2344087351698203
9.76,0.2288355648071405,0.23846216054260383
9.764,0.21420383857225866,0.23965665030568495
9.768,0.19775910546503983,0.23360975552849816
9.772,0.1843762085297722,0.2197714131638948
9.776,0.17730858598766308,0.20280847186895756
9.78,0.17620867610089963,0.18928435290091916
9.784,0.17725806161576374,0.1830629757998783
9.788,0.17663722945356675,0.18365107972286254
9.792,0.1734990762508879,0.18780953813007395
9.796,0.16956044690777095,0.19234216880460608
9.8,0.16676725647686053,0.19554948041702902
9.804,0.16550697789326718,0.1967435175640566
9.808,0.16501437462642388,0.19588278689858507
9.812,0.16489494585258235,0.19435582025044873
9.816,0.1657156182528936,0.19425879163875215
9.82,0.1681798323782513,0.19524231440336126
9.824,0.17163519522771553,0.1939625957316149
9.828,0.17394894838171604,0.18842851605446986
9.832,0.1735834287993061,0.18088792236289009
9.836,0.17104598117026892,0.17525182514682203
9.84,0.1675289328127032,0.1731397202596181
9.844,0.16393150734005246,0.17294478332938623
9.848,0.16224517855444387,0.17214401949991887
9.852,0.1648181835210678,0.16997394642393293
9.856,0.1709247617406271,0.16778763721468515
9.86,0.17668554602119557,0.16708634531909317
9.864,0.1790631322796008,0.1678112345251226
9.868,0.17815380476541076,0.16942751785654453
9.872,0.17563876726254346,0.17303610699688465
9.876,0.17282569165521622,0.18011678647246576
9.88,0.16997040005114683,0.18900353450367313
9.884,0.16636865552657043,0.19549399929917444
9.888,0.1618291483332448,0.19731942310748818
9.892,0.15816183000579564,0.19557152406086353
9.896,0.15818543544617514,0.19241958341216292
9.9,0.1630502783776322,0.18936252001787945
9.904,0.1706415834967392,0.18703740115632828
9.908,0.17738970077032623,0.1861505102801626
9.912,0.18237287703736493,0.18847490580448678
9.916,0.18787554492170777,0.19533914829803178
9.92,0.19452175226986568,0.20430085602052084
9.924,0.19832102434077936,0.20927408563982808
9.928,0.19527382722808895,0.20617267132251782
9.932,0.18736922704590442,0.19764219990852872
9.936,0.18088331869354013,0.1900495133092306
9.94,0.17942926860155461,0.18635077987861126
9.944,0.1810306412702556,0.18428275940319638
9.948,0.18149824530988856,0.18144031955341755
9.952,0.17909909747520647,0.17938958145015826
9.956,0.17588466232511069,0.18155856233729706
9.96,0.17463605621636202,0.18864749018205362
9.964,0.17488456362237148,0.19732259947507558
9.968,0.17369575297990236,0.20308962824714616
9.972,0.1707875207025933,0.204234024790225
9.976,0.17043584727797234,0.20308567196056693
9.98,0.17626465407042846,0.2031597411539836
9.984,0.18528956217104642,0.20476656932636494
9.988,0.1897008568659213,0.20423220073206028
9.992,0.18435851071243037,0.1981855254418965
9.996,0.1713792726593979,0.1875647766180275
