Time,Channel_1,Channel_2
0.0,1.4858008414987784,1.1887312412778428
0.004,1.4165888634005879,1.1524878797715845
0.008,0.6167190655380392,0.48644542520240913
0.012,-0.5042144859388985,-0.39593623253880667
0.016,-1.312154929815389,-1.0125469096209594
0.02,-1.517199712727871,-1.2586092729412623
0.024,-1.115652625087345,-0.9386128919761121
0.028,-0.6036211348750504,-0.5276522535002104
0.032,-0.00484849070802662,-0.10981824675713832
0.036000000000000004,-0.20327682856200704,-0.24416955910539592
0.04,0.04232033807084727,0.028740581986852757
0.044,0.17196656654013034,0.14511002772693793
0.048,0.06373019409740605,0.08876752751880998
0.052000000000000005,-0.08712794241611488,-0.03671520234816862
0.056,-0.23940795762290001,-0.1786070091859133
0.06,0.027914881617378942,-0.0015389323950419746
0.064,0.161693691691862,0.1630724264071017
0.068,0.2132670384213954,0.16272272543036612
0.07200000000000001,-0.11114368744137398,-0.11753121463568643
0.076,-0.10537511269583638,-0.18941243314823492
0.08,0.005412773030649869,0.017536271132931432
0.084,0.232096064136455,0.183733122192116
0.088,0.08576880417886681,0.14330204042040193
0.092,-0.23889563011443504,-0.13220868612475112
0.096,-0.21887926709060812,-0.22601301471771595
0.1,0.019325931609413927,-0.022990582102005254
0.10400000000000001,0.2257051424213874,0.12425307156691985
0.108,0.12363155518174677,0.06776962746198356
0.112,-0.23496570485866114,-0.17999021869154813
0.116,-0.3292095035882554,-0.2923668474456934
0.12,-0.21483644629595938,-0.1537467551940095
0.124,-0.14920174081498802,-0.0917395210556787
0.128,-0.16875066908383052,-0.16156378742252825
0.132,-0.3900561352775417,-0.3606238490888799
0.136,-0.6208452549154561,-0.4826547853513721
0.14,-0.2549645880660866,-0.3367828063431311
0.14400000000000002,-0.1804765870246346,-0.13441962223047466
0.148,-0.1374353342826405,-0.21058165324112765
0.152,-0.40614662147667935,-0.2736750827713341
0.156,-0.35149516547041254,-0.24918515557062565
0.16,-0.22074416211281284,-0.1438163920377405
0.164,0.14752665275141313,0.08324003952780235
0.168,0.11751071095656286,0.09672182455598154
0.17200000000000001,-0.046745001942218756,0.016244945103796392
0.176,-0.07848311201090105,-0.047696833523296164
0.18,0.2699110190001106,0.18482199535977314
0.184,0.47952963495486,0.5171966330091562
0.188,0.4703122063693725,0.35015241599533514
0.192,0.24966985012682852,0.2484469297622991
0.196,0.142112603939686,0.15391824348319905
0.2,0.39156155993647473,0.3487085486681612
0.20400000000000001,0.5033604591084047,0.4854190128940593
0.20800000000000002,0.50508445426138,0.3876442005277373
0.212,0.22968574722902685,0.1458986254847978
0.216,0.11528902252741191,-0.00556222674639921
0.22,0.24724778865374925,0.17546667556899792
0.224,0.4492864146545915,0.27800356182958563
0.228,0.20345920225109498,0.15263659348514166
0.232,-0.04495643154122389,-0.061976874412545964
0.23600000000000002,-0.2855747800084843,-0.24061525348052687
0.24,-0.24167249222188528,-0.06073590436643442
0.244,0.005168781485104701,0.0020589246355888716
0.248,-0.117293943779895,-0.05101378031080234
0.252,-0.427010523564276,-0.366141839842294
0.256,-0.5231442531400117,-0.4598952714790443
0.26,-0.317653399699487,-0.19295414863626223
0.264,-0.12242656442636025,-0.0841993992170052
0.268,-0.27149922365408913,-0.0888904222872594
0.272,-0.3654649647917836,-0.41288360541460367
0.276,-0.4602347221566623,-0.3932680243579002
0.28,-0.2293524590776627,-0.20623053991822551
0.28400000000000003,0.008936816170063172,0.08609559024473071
0.28800000000000003,0.04279119866955957,0.005826895843980773
0.292,-0.10188741626263975,-0.10589126037146412
0.296,-0.15293165481025178,-0.07203849256135478
0.3,0.03546342740835169,0.11854227864746984
0.304,0.2428140108039551,0.15862555452999388
0.308,0.19718482423079686,0.11013228874819496
0.312,-0.09593907007631566,-0.14718664405548462
0.316,-0.12890214251641977,-0.11257094717498013
0.32,0.0400349776567239,0.014510621910655547
0.324,0.2608277894967215,0.14606753710203974
0.328,0.20895287114909006,0.12011105493148784
0.332,-0.07672220184345029,-0.12128395821943116
0.336,-0.15101254747857268,-0.14643973916314085
0.34,0.0034166517480244893,-0.015793281026827696
0.34400000000000003,0.24291735606215648,0.20304921669066417
0.34800000000000003,0.14581455014818487,0.1747942523498633
0.352,-0.07338858754466325,-0.06170426998951688
0.356,-0.16673625734556516,-0.15163241110180145
0.36,-0.0031731094761611733,0.05808842988386513
0.364,0.21375792365015323,0.1445687640984505
0.368,0.11783508332076348,0.07689159916921726
0.372,-0.1215766677456295,-0.06362732841973756
0.376,-0.23318080759701823,-0.0863938223676162
0.38,-0.011543689880128417,0.03624416562154499
0.384,0.1926483048686975,0.20428762860389094
0.388,0.08366766759721271,0.12889242907921006
0.392,-0.13223763189451074,0.02466872342370907
0.396,-0.10548453817925837,-0.21932073250594386
0.4,0.044848564271896874,-0.037352193114300374
0.404,0.24954248930902367,0.25931344285121977
0.40800000000000003,0.23962287440832392,0.22525161401147706
0.41200000000000003,-0.02465408202589961,-0.11485851353857358
0.41600000000000004,-0.07441796708945721,-0.042536036813414294
0.42,0.0816932342398593,0.06962350737046086
0.424,0.18926419823995858,0.3157611017428348
0.428,0.023309063786024847,0.14543506234934972
0.432,-0.09606494759693371,-0.12352005487728501
0.436,-0.2521937410404307,-0.12227752304520251
0.44,0.0369402633677968,-0.034783736332421746
0.444,0.2574231037635108,0.16524078109701396
0.448,0.1661349735914195,0.14164338083278238
0.452,-0.1509078172365601,-0.021002702833312417
0.456,-0.1578563855840638,-0.1840076593756005
0.46,0.07250591603387163,-0.029535665949211296
0.464,0.23433821422098147,0.20958045254570506
0.468,0.08966390764931213,0.07802208674524289
0.47200000000000003,-0.040160985726257876,-0.02128520654640198
0.47600000000000003,-0.1640807802079278,-0.1127061195787467
0.48,0.06521053103451972,0.09391683692912832
0.484,0.25163346809488246,0.17694378577125813
0.488,0.18872165156238904,0.1007076526706332
0.492,-0.1277664904811347,-0.060806291318200874
0.496,-0.1592242084887055,-0.11219155805471603
0.5,0.07637817201944255,0.04130455845374846
0.504,0.30340717994947763,0.22685271443002086
0.508,0.16497346309503028,0.137988321597837
0.512,-0.10118106463686721,-0.021468080926703596
0.516,-0.1205273865711966,-0.096417706394396
0.52,0.016070281797528632,0.03271129121441748
0.524,0.3454954360466459,0.2134630036678979
0.528,0.15355546324470884,0.13088431101958306
0.532,-0.08478222296736977,-0.05301338303950529
0.536,-0.16308055379489517,-0.18466459024246823
0.54,0.04784916023273749,0.06076376883911744
0.544,0.21538467876827377,0.2101199404322932
0.548,0.19027527353160767,0.16114132847336965
0.552,-0.07307474066908698,-0.05703199062958403
0.556,-0.12686424090329979,-0.16820003070869977
0.56,0.09528320662925951,-0.009283233992144882
0.5640000000000001,0.22117649766929337,0.25157942561277924
0.5680000000000001,0.11923830992123606,0.1333717523403803
0.5720000000000001,-0.046227271657011765,-0.08375972435807463
0.5760000000000001,-0.058971896463172,-0.11244506402888929
0.58,0.07193547736278016,0.0629524916019402
0.584,0.23451641129981876,0.25972117596948985
0.588,0.18503980999282713,0.12746078406324501
0.592,-0.09561675818294472,-0.0552512358142604
0.596,-0.09042704738901755,-0.12732823195048867
0.6,0.04701695463479758,0.015563711854407178
0.604,0.33991046458060725,0.2128837133378177
0.608,0.16208687589789045,0.0972290505751233
0.612,-0.004530702598796253,-0.06703122265363999
0.616,-0.14143752048472716,-0.15111130291679345
0.62,0.035425863027849364,-0.004633182770785393
0.624,0.2025906725185973,0.1885093080349503
0.628,0.19187535880431758,0.19321785714646714
0.632,-0.07256643280029854,-0.04835933579661729
0.636,-0.05342507051416717,-0.11160064785274869
0.64,0.03568196308919067,-0.004630860217177714
0.644,0.3034788907700426,0.23690738837680653
0.648,0.13789976921206315,0.21353857205347904
0.652,-0.07044523905281702,0.01053713300074774
0.656,-0.18260500329585833,-0.18737274533436155
0.66,0.09353183247034241,0.008315249112871452
0.664,0.21647912142732367,0.16264035620329378
0.668,0.08640100173223897,-0.005741127238929406
0.672,-0.2735593176619985,-0.22153426322602693
0.676,-0.366857293451676,-0.3145306200584297
0.68,-0.2239836986411078,-0.18194472309359608
0.684,0.10970616180454149,0.009516908424815021
0.6880000000000001,0.1093159401250625,0.10744612259794989
0.6920000000000001,-0.09456761597701112,0.025553997289521527
0.6960000000000001,-0.061044011595797726,-0.03521251831053965
0.7000000000000001,0.20744692055766673,0.22575867966349553
0.704,0.557772455665198,0.47492019103749966
0.708,0.4329881926680139,0.3816583698984938
0.712,0.15392955542122078,0.14642488046898064
0.716,0.10774304039112967,-0.016981541205570237
0.72,0.12852944896734095,0.11747136417269863
0.724,0.18301589385172046,0.3002970579454266
0.728,0.07428831223421506,0.047483529031181484
0.732,-0.3156909352377332,-0.24652190599280183
0.736,-0.36742542595771804,-0.2631177608360252
0.74,-0.18539733123523583,-0.11870699522809591
0.744,0.13076940953141092,0.08634106415399222
0.748,0.01239852177038242,0.034739560672957054
0.752,-0.0842876240745889,-0.13507136547043952
0.756,-0.13001938128302407,-0.13681274282248496
0.76,0.03546552486047702,0.025453074766560203
0.764,0.27897152201166747,0.21031203522930875
0.768,0.14614976169534805,0.13738124985263206
0.772,0.021982892873369422,-0.0654619971485898
0.776,-0.1479554952539708,-0.09648506873994299
0.78,0.04471203774676291,0.08579128838237088
0.784,0.23812249599156293,0.24889219412853072
0.788,0.24981644229507102,0.09943393947531964
0.792,-0.07414514542814496,-0.024610014949676913
0.796,-0.12153465143878668,-0.09330104899819269
0.8,0.05814615194199527,0.1144606997967216
0.804,0.3153021355269418,0.22779514623363248
0.808,0.2082634665565257,0.1310021738317933
0.812,-0.02521207006015518,-0.06235610406288193
0.8160000000000001,-0.08594021726278825,-0.08963013222638169
0.8200000000000001,0.09625964279604385,0.07817939654914358
0.8240000000000001,0.3425182050321822,0.2349619261769759
0.8280000000000001,-0.2576369887313642,-0.2683889676483985
0.8320000000000001,-1.2730112611623396,-0.9538790481822674
0.836,-1.582278695195021,-1.3582625641558808
0.84,-1.1126176391114526,-0.9856919557401113
0.844,-0.25348967847311327,-0.14935009184969325
0.848,0.5832353536855793,0.3833134501267363
0.852,1.0393049867760789,0.802149764294019
0.856,1.3802805926682786,1.0708149398968902
0.86,1.5156374800708763,1.1724632826157764
0.864,1.0494346554787612,0.8029940742312475
0.868,0.11034701504845633,0.10931908585677011
0.872,-0.9193345625365431,-0.7489437434009617
0.876,-1.5340949636233905,-1.1972786030583382
0.88,-1.3876183597871967,-1.121627978942434
0.884,-0.6835118510249435,-0.5254312837602912
0.888,0.1797528579440529,0.17655701270008356
0.892,0.00698246944595414,-0.0960956225777796
0.896,-0.13809153280974887,0.003328596893337546
0.9,0.08554297360319174,0.014791770517979294
0.904,0.32664968650768955,0.25559272777716546
0.908,0.21735064774440058,0.1641813083821566
0.912,0.02066529709807595,-0.0861596035438521
0.916,-0.11232647963313655,-0.1399818270586024
0.92,0.03233937958582949,0.010205896748554502
0.924,0.2214565494728476,0.23475227902457096
0.928,0.200946666427804,0.1626661380321234
0.932,-0.017795846196081554,-0.08300626282721615
0.936,0.005344062114831252,-0.1093066156635828
0.9400000000000001,-0.0024288068837017007,0.04006416909781596
0.9440000000000001,0.2597379866353446,0.19601258378606826
0.9480000000000001,0.2526289330935212,0.22767154909186263
0.9520000000000001,-0.0061766204438022075,0.007615084471557343
0.9560000000000001,-0.12476664050011674,-0.18252486569343745
0.96,0.16462036084150156,0.122070026453824
0.964,0.20983642961945026,0.1709001752594973
0.968,0.04661742772495839,0.0963617387187145
0.972,-0.3048744463977766,-0.14906411190149965
0.976,-0.3469925357305079,-0.3015899185526004
0.98,-0.24595905899056453,-0.16889158621300784
0.984,-0.004137337786465512,0.022481852966030676
0.988,-0.14042654827816042,-0.05320219511796114
0.992,-0.32811998604997455,-0.29591027291768884
0.996,-0.4593447056205915,-0.3725505128840844
1.0,-0.23189094641429167,-0.1514986680088096
1.004,0.0009949997312438362,0.00993613471077551
1.008,-0.12625354687773324,-0.03239975104194938
1.012,-0.2571629578873599,-0.20438020402816467
1.016,-0.29097322658875374,-0.21404956384059803
1.02,-0.07002810204641555,0.024396045524676793
1.024,0.2727667420970221,0.24114845648544272
1.028,0.2541223125163871,0.27537584534050213
1.032,0.06547609787660788,0.07134276697791066
1.036,0.07698210393627486,0.05068864373148865
1.04,0.41194878203423185,0.21065931162541685
1.044,0.518261699740798,0.6133626914043714
1.048,0.6195911402331681,0.4240020632304271
1.052,0.2901985577789736,0.24191093278044945
1.056,0.26664801905300306,0.30057026520778196
1.06,0.4472532727515297,0.3491150939047188
1.064,0.6651135365260291,0.5115440556053767
1.068,0.4781273638855815,0.49569668039820197
1.072,0.18825301729695337,0.20696379413629687
1.076,0.15907591342161387,0.09483177675160999
1.08,0.16285366443819488,0.17182429978250047
1.084,0.3858726229810845,0.3423405398844663
1.088,0.16748983927789385,0.1638377263518658
1.092,-0.13904708462756324,-0.10620940696023856
1.096,-0.2254827736822826,-0.11623759502408251
1.1,-0.15160398243575093,-0.10463034096253343
1.104,0.081829726829484,0.056862772463081246
1.108,-0.0793344008175534,-0.13189679932226983
1.112,-0.3582598941599929,-0.3328667561564709
1.116,-0.467911777751691,-0.41513803118997505
1.12,-0.24755599182494983,-0.1928094726590388
1.124,-0.046397100863721785,-0.15815187701043615
1.1280000000000001,-0.12404516234070748,-0.07291777107753142
1.1320000000000001,-0.3070255791645794,-0.2630582516683894
1.1360000000000001,-0.25935642599248054,-0.2913804347089897
1.1400000000000001,-0.0634523765639963,-0.05017913567057851
1.1440000000000001,0.16439964452606454,0.13726649772917912
1.1480000000000001,0.1597587868584811,0.1505422875899184
1.1520000000000001,-0.057458900293533115,-0.02240029711632366
1.156,0.07869700863303791,0.019121916911604316
1.16,0.0962097496420623,0.09564955674235918
1.164,0.33953204238099327,0.26789404505515474
1.168,0.2404994598753633,0.27530870960495457
1.172,-0.057144135053938214,-0.034721525226791713
1.176,-0.045669212576238925,-0.14414124739154704
1.18,0.046078862976294654,0.0348439651476532
1.184,0.3165772362281295,0.23061701861375986
1.188,0.24976618758422617,0.13786544322909028
1.192,-0.02151821094041264,-0.03542082015449144
1.196,-0.02076353565273832,-0.1359783388697013
1.2,0.15332608236769737,0.024300281757580394
1.204,0.253330663750424,0.23238837342864652
1.208,0.23460847337282248,0.2551593051931964
1.212,-0.010487009486721835,-0.007674287223870499
1.216,-0.011247951343329565,-0.11107010938597181
1.22,0.006538185768169474,0.11925192872438617
1.224,0.2606735470732291,0.22480932915829593
1.228,0.222824675422473,0.1470192131626133
1.232,0.037976420637740614,-0.03294856694165521
1.236,-0.06496671728083406,-0.05936937737450454
1.24,0.19136359936070205,0.05516653917033604
1.244,0.3090283415112129,0.16554411226791277
1.248,0.2606147846932764,0.1141807702465518
1.252,-0.04752711587760403,0.03808552029289512
1.256,-0.016576845012668408,-0.04264868112449083
1.26,0.0583838564448152,0.14732473758335654
1.264,0.2740599974624022,0.2576768185254878
1.268,0.17663781565440362,0.17405118188791333
1.272,-0.0061448014832460466,-0.03671255108605498
1.276,-0.05737018030999333,-0.10041797601507489
1.28,0.14364042791205522,0.08560947654721078
1.284,0.2992802917835727,0.30262890130885683
1.288,0.2827765409591282,0.2139646790690445
1.292,-0.01487953724613214,-0.07936433061644359
1.296,-0.06255354495869556,-0.12132340827413557
1.3,0.1264465101694551,0.10050965738709572
1.304,0.2734049899271594,0.23495202683126892
1.308,0.1631250885957442,0.1396685636575667
1.312,-0.06918607168612423,0.00404224176517955
1.316,0.012387515270821756,-0.04166507331307882
1.32,0.2072306218426932,0.08823170040131989
1.324,0.26326892754456444,0.24236261773437306
1.328,0.2131359140004187,0.1583094713419479
1.332,-0.002310894040135074,0.006246738777648083
1.336,-0.007368425537637613,-0.007082614969367018
1.34,0.11442393393833371,0.0877912152456103
1.344,0.3206271467029214,0.2803127362037191
1.348,0.22849163488552765,0.15807928837428906
1.352,-0.04512328414458911,-0.06783534994201787
1.356,-0.10803164550189855,-0.09843860137621256
1.36,0.10577131663318932,0.16892939245308103
1.364,0.37655106281342593,0.2985658672313839
1.368,0.17863672790701657,0.14031593735890763
1.372,0.1024464593934654,0.04507839250090504
1.3760000000000001,-0.15936765664845742,-0.09600804021309148
1.3800000000000001,0.11059034538495024,0.12989514477296865
1.3840000000000001,0.3217599278510264,0.2760716012092766
1.3880000000000001,0.21440491062061479,0.27479888337722963
1.3920000000000001,-0.043091903144889726,0.0007878523110679565
1.3960000000000001,-0.12077377136834563,-0.006313298270355483
1.4000000000000001,0.13033053700802277,0.19661584019045542
1.4040000000000001,0.31485917560916266,0.23892851789915415
1.408,0.23461350845305,0.1647667503787507
1.412,-0.041756254925977954,0.0036578423379853902
1.416,-0.09677706314545031,-0.04466079030422682
1.42,0.12322157509434131,0.07163178326112053
1.424,0.3105552472910891,0.330364026408152
1.428,0.2460259453811574,0.2650384356202119
1.432,0.011933749826073743,-0.0440779555087217
1.436,-0.012217946490760162,-0.04642609370497519
1.44,0.131809136026687,0.07344395994848807
1.444,0.2726067760438145,0.24767971758007645
1.448,0.18314365779165312,0.17689209272559192
1.452,-0.09535751339905363,-0.0045941613858794484
1.456,-0.06510191781418147,-0.08001976607513464
1.46,0.16603655135703266,0.11124133555679303
1.464,0.3299542886025506,0.25338583032093964
1.468,0.2523491820969389,0.27037971760356805
1.472,0.03126189365422008,0.0037630931372061574
1.476,-0.07550866360257792,-0.10668532298525463
1.48,0.13214639356894523,0.06750066645743079
1.484,0.2770675132818684,0.30701302348428083
1.488,0.30049750654178603,0.15980119588865974
1.492,0.08348071742412058,0.018689741573234737
1.496,0.028068967412746254,-0.08099811954299292
1.5,0.16955574031435328,0.13130596029653288
1.504,0.3048341459927717,0.2490542655998888
1.508,0.2371362466089808,0.2119220791636989
1.512,-0.02508103790427045,0.038600617478550495
1.516,-0.06422805811917762,-0.049281190776701136
1.52,0.041135893985639514,0.13343711894814492
1.524,0.15170233713704068,0.21179152927117048
1.528,0.06471614174731842,0.11921432785494471
1.532,-0.18887031713461377,-0.2085091009414838
1.536,-0.3266228829497485,-0.24799497883306976
1.54,-0.08517269788323195,0.007374598136942058
1.544,0.17448108530460527,0.23348576066319657
1.548,0.2688648594105662,0.18336551384059446
1.552,0.1302773098939038,0.1141058707187575
1.556,0.09154813904406776,0.09038420377031788
1.56,0.32828230514014567,0.3308452552374368
1.564,0.5786574944376318,0.5243156800461499
1.568,0.45661924391548747,0.3905389794621735
1.572,0.24945544406564135,0.13589992739103915
1.576,0.03919069696308615,0.03576089940466175
1.58,0.08935621657255216,0.09373777130601725
1.584,0.355289073973059,0.20017334082306365
1.588,0.11362249111277824,0.08268593116077096
1.592,-0.22199079039942493,-0.1796589682019231
1.596,-0.2795714056059542,-0.25304829943130647
1.6,-0.018855885218480084,-0.06984745954449903
1.604,0.1546532533820997,0.13971349450853593
1.608,0.17794652341385403,0.13934381306832358
1.612,0.09283542784565141,-0.04631696355056471
1.616,0.003924594314884254,-0.022954058436024036
1.62,0.14216240040782976,0.06977209641854273
1.624,0.29007549277324857,0.3336026079873671
1.6280000000000001,0.3271141234028848,0.2458237456881288
1.6320000000000001,0.0838539641019923,-0.018500372331932934
1.6360000000000001,-0.043364260730518016,-0.09134370592018301
1.6400000000000001,0.10285478983636381,0.08797378127707757
1.6440000000000001,0.31263024158092795,0.29818504397280715
1.6480000000000001,0.2336513889462004,0.20881101316819978
1.6520000000000001,0.06712870404073362,-0.0630990080954704
1.6560000000000001,-0.07106041211167917,-0.024766291771842017
1.6600000000000001,0.15887532664018025,0.11170072977345276
1.6640000000000001,0.3802619723052372,0.31220329798732743
1.668,0.267944903301122,0.23984518199494764
1.672,0.045480236465484984,0.009000360573145377
1.676,-0.052522160101269096,-0.011119010196801261
1.68,0.18231506535963102,0.15130715761765917
1.684,0.28823518823784333,0.33408303222932856
1.688,-0.7735580686353349,-0.6350393261195577
1.692,-1.501059837176838,-1.139072675477477
1.696,-1.470403400168062,-1.1044938222088636
1.7,-0.7361505663241913,-0.5810847902982231
1.704,0.29809290088286045,0.33239386314191255
1.708,1.1218132051184067,0.9194945654954538
1.712,1.380797634473633,1.1471125598956555
1.716,1.4101512573213992,1.0321059880750993
1.72,1.1706237353030626,0.8961332598175813
1.724,0.5111413932268127,0.3714566992639132
1.728,-0.38068967909500917,-0.35064907646425697
1.732,-1.373150425157244,-1.0158939557450923
1.736,-1.4877791706997252,-1.2538433926815646
1.74,-1.026759662635322,-0.7951340574756051
1.744,-0.02160959530215785,-0.03988837553537013
1.748,0.2948480645352067,0.26246311490402147
1.752,0.13226085203353738,-0.009926928545427212
1.756,-0.001768948652175549,-0.08073936219099215
1.76,0.13580185148664353,0.13716702362005778
1.764,0.38882753956155947,0.2774073851435769
1.768,0.2220036250209034,0.291025068809395
1.772,-0.03087019967750218,0.02943416385247307
1.776,-0.025538466284087756,-0.0667813236917292
1.78,0.2056872419890458,0.05123105168079567
1.784,0.4015041044061535,0.37954885167238805
1.788,0.26357940173389516,0.15236890581808593
1.792,-0.0004321914720705408,0.01662992616909241
1.796,0.03523483061808394,-0.01556863919396577
1.8,0.1494903535144736,0.14818901303117965
1.804,0.36031471674971016,0.24788561939987935
1.808,0.2544568763593073,0.20790555059181104
1.812,0.010458029579425883,0.05356977018414863
1.816,0.07407761737137958,0.019092300889085194
1.82,0.19547453822292546,0.09718332080902384
1.824,0.27445972496615406,0.26515892932097507
1.828,0.15025372740032564,0.09397763462536614
1.832,-0.21802231160297986,-0.09719617035394801
1.836,-0.3315862987584092,-0.2598860418272919
1.84,-0.2042054375868837,-0.11109161157205133
1.844,0.05001684998694783,-0.038095693022611385
1.848,-0.13129049348272914,-0.012660655877449828
1.852,-0.2971135712950329,-0.2994263455894117
1.856,-0.30478701024460153,-0.32029596254916626
1.86,-0.15071828152327899,-0.1411944762040652
1.864,0.09953077605781271,0.009396379054917095
1.868,0.04829453940948368,0.12751507343637225
1.872,-0.07568139681552236,-0.1332159817390595
1.8760000000000001,-0.21284462815956146,-0.13372124361697202
1.8800000000000001,0.01755754520358306,0.15391277884678017
1.8840000000000001,0.4169809169807156,0.35987213120553285
1.8880000000000001,0.3990775208838806,0.35928272725452326
1.8920000000000001,0.251509634384309,0.20289071309788204
1.8960000000000001,0.25955876402327266,0.1400696683695306
1.9000000000000001,0.4400917096000199,0.3322042285159414
1.9040000000000001,0.6945586608475307,0.6028627484898994
1.9080000000000001,0.5569223697702672,0.520455664628201
1.9120000000000001,0.47888767383105135,0.2818240517093522
1.9160000000000001,0.2618175605255911,0.26419985396005086
1.92,0.4879188997414999,0.39887894013301833
1.924,0.7045088849622572,0.611713779319549
1.928,0.48330852867245894,0.47328481848236814
1.932,0.30879544435835693,0.16017558237351578
1.936,0.21082313505501873,0.18680915462098127
1.94,0.27596003639583294,0.23487936020293038
1.944,0.453715694845752,0.3489477344653121
1.948,0.30535976792177116,0.25039790946098606
1.952,-0.041177643667323474,-0.06536271891890855
1.956,-0.20959927904478048,-0.18103407374807248
1.96,-0.10738988839343716,0.0006350311136700607
1.964,0.05024269217048766,0.10005811594810154
1.968,-0.021190254954072507,-0.056616091016259626
1.972,-0.31754587555867503,-0.2249912296733762
1.976,-0.4921014651212493,-0.3494259143036472
1.98,-0.23802442514682215,-0.18328686813212888
1.984,-0.023980988369245566,0.03742535680605186
1.988,-0.0808188915551336,-0.05590056044672097
1.992,-0.2476991449376308,-0.1957382955131968
1.996,-0.1711381919212306,-0.2243414545725879
2.0,0.03232641501135952,-0.03327753061429569
2.004,0.2556102886953705,0.3723309007567286
2.008,0.27351759134513703,0.1854628617716801
2.012,0.10993965014693376,0.061978338808321425
2.016,-0.057357906008684095,-0.06508607873637053
2.02,0.20505728781817167,0.15590436712341393
2.024,0.3484531957639926,0.2167383162921378
2.028,0.35257808323162027,0.3399031067975711
2.032,0.06869004812411411,0.0497056218208977
2.036,-0.09424772518928598,-0.046853721226324405
2.04,0.20910923248036467,0.12302571831154271
2.044,0.38680999951088285,0.27908815215661353
2.048,0.2921613231599114,0.17298247339828082
2.052,-0.00609245332209607,0.08504451489122167
2.056,-0.011330076947482101,-0.01726526704087096
2.06,0.18164722038226844,0.10098663892782801
2.064,0.3649308896005485,0.30917524896591314
2.068,0.23355214820025566,0.31000626088854866
2.072,0.0844969028040461,0.06620405127387811
2.076,0.03080929811738716,-0.1111926854678578
2.08,0.10660824112581244,0.09694918202696047
2.084,0.426518086500822,0.3272210281703701
2.088,0.277119135050314,0.2845962307822435
2.092,0.04160286425628165,0.049046802100746405
2.096,0.0581125347603899,-0.05750118187798793
2.1,0.23207582286496017,0.16106088657256137
2.104,0.3952848213513808,0.33333122155571504
2.108,0.3021270595013364,0.18220809452743592
2.112,0.13949163320670765,0.07524733321092082
2.116,0.03169276410740137,-0.051159807484025085
2.12,0.18985831454684973,0.16074899840778697
2.124,0.43372118313797076,0.3076748229491868
2.128,0.20105320812211014,0.2663401993820228
2.132,0.11688862711484115,0.015485998194941529
2.136,0.03195742616148105,0.004267652544186425
2.14,0.21431284488953478,0.17322168745185207
2.144,0.37421101562463055,0.2982031498766376
2.148,0.31941406483663387,0.23040726153271354
2.152,0.09286517762731554,0.05361258743879989
2.156,-0.0918618231749052,0.06194864158421408
2.16,0.23129584546028836,0.13371731878241722
2.164,0.4537432928277346,0.28203906466303147
2.168,0.23859872471167237,0.16857766325016077
2.172,-0.013563844587291804,0.0197339412609089
2.176,0.05172882278220725,0.042017946438914947
2.18,0.20057939445281434,0.09080735109587704
2.184,0.40626479309212166,0.35092916714752664
2.188,0.2622521309115018,0.27455071951814813
2.192,0.044620482404081084,-0.0059940085742412885
2.196,-0.038659077379354506,-0.07625045646977689
2.2,0.15953273741615737,0.14067513963373451
2.204,0.27856295976200884,0.36148171921597555
2.208,0.37672712865138464,0.29178792481142596
2.212,0.07213222218777426,0.09647474227611856
2.216,0.0678639697090524,0.0668427521434921
2.22,0.16601081384904248,0.1114486634251959
2.224,0.44531096623283317,0.32377704971021115
2.228,0.28461615549811786,0.23643326249795488
2.232,0.0041994249073482315,0.07701221178138418
2.236,0.0893923816941309,-0.04219818157720695
2.24,0.2370465231949436,0.20188441575765873
2.244,0.42040009218457025,0.31812300873260174
2.248,0.3236558927918417,0.2260372272227421
2.2520000000000002,0.07604394872605767,-0.05869084742339167
2.2560000000000002,-0.07177523977641173,0.08289328635853078
2.2600000000000002,0.12180451579354717,0.07230886977742366
2.2640000000000002,0.3338874988219892,0.344808528810233
2.2680000000000002,0.3721524400260908,0.22923075660246425
2.2720000000000002,0.12416992578395689,-0.004174972862954436
2.2760000000000002,0.023873785379154404,-0.007828778966252972
2.2800000000000002,0.08913447798735208,0.14013350443120887
2.2840000000000003,0.43293184718786504,0.32017479881929334
2.2880000000000003,0.32722883167542277,0.21213063986749928
2.2920000000000003,0.06921289917208046,-0.009986449189542362
2.2960000000000003,-0.05906995524830623,0.02040335883393906
2.3000000000000003,0.2572413718439006,0.1990878467189938
2.3040000000000003,0.36929054968693575,0.2787301209880349
2.308,0.3273130022619586,0.21946872050767216
2.312,0.010067870451822544,-0.00460488699093782
2.316,0.08601763623966525,-0.05179156467367582
2.32,0.2387807567490409,0.11548695089190782
2.324,0.3440940618190579,0.359036860496976
2.328,0.27863801656903425,0.29038114069329507
2.332,-0.014374028083588758,0.002362427804437517
2.336,0.10633029521265713,-0.039598605944653746
2.34,0.27583009792654245,0.13419224735584787
2.344,0.3852990052368853,0.3779746558346333
2.348,0.2968104701795534,0.20584814298828558
2.352,0.046701974651980296,0.05395917521770381
2.356,-0.03898879056169979,-0.007342962402013006
2.36,0.2095974375857129,0.19729040344988724
2.364,0.465438702822505,0.33646485883842614
2.368,0.27117616326027094,0.2228056439824327
2.372,0.2533504036919213,0.04269154085759562
2.376,-0.045863713900751044,-0.039839784874545876
2.38,0.07288550305807721,0.06722064107709504
2.384,0.18489172316841593,0.21434494625350997
2.388,0.10962347069667297,0.04752321452969879
2.392,-0.24324223310897364,-0.2047856626632571
2.396,-0.1598464586381384,-0.1797458408509766
2.4,0.12699705809640002,-0.013338275759325904
2.404,0.3136650627665443,0.3673184974669923
2.408,0.37309421941580295,0.21782694868875463
2.412,0.2228810148140543,0.13573185221522324
2.416,0.1909790361682088,0.19439198764016896
2.42,0.39596818321872534,0.35726533638255403
2.424,0.7218080815367965,0.6037881857046852
2.428,0.49905867191257947,0.40394508548497765
2.432,0.14206025224100585,0.19608296568556788
2.436,0.08157641092027135,-0.04460453292507043
2.44,0.16008396456730542,0.13363450893142295
2.444,0.29021630292349154,0.20866298001121328
2.448,0.16110757362090383,0.050266586739109935
2.452,-0.16800696374457463,-0.11551299463129962
2.456,-0.21537917981782945,-0.21469355494601441
2.46,0.06066913671256627,-0.03999121222923314
2.464,0.30097131809853606,0.22295784077287875
2.468,0.3690535769259678,0.2199723668855358
2.472,0.11187355433949141,0.051445999832298306
2.476,0.054444479471263824,-0.06037463215290352
2.48,0.15312802640997683,0.1861954009391418
2.484,0.33041673832382285,0.33268192670106245
2.488,0.22529042387195441,0.29322625166391014
2.492,0.07448880198812624,0.08363056708323638
2.496,-0.0033442374374913035,0.02530311183532313
2.5,0.22719081015309028,0.14843448040719118
2.504,0.4550365693078279,0.3316156197947579
2.508,0.33278220562614824,0.24718494672772162
2.512,0.07795788002365432,-0.054844418448641935
2.516,0.017715478134625727,-0.022721457776425563
2.52,0.19405405188346586,0.16402901323420072
2.524,0.4294885071227297,0.3362658600084049
2.528,0.3390350478622862,0.22382413614682564
2.532,0.10878404157532347,0.01738324722189958
2.536,-0.055304901193587705,0.0958547683163851
2.54,0.1393505295843012,0.12833308890465017
2.544,-0.46750863404946497,-0.322193144810022
2.548,-1.0385813458385653,-0.906017929820905
2.552,-1.374796308444846,-1.1154884674228207
2.556,-1.0244800505317784,-0.8333299635642035
2.56,0.013261910135851512,-0.024897327680094682
2.564,1.0515113713946604,0.8969172861750766
2.568,1.6234352959983553,1.3718708417532877
2.572,1.6789091541448613,1.2762739423425484
2.576,1.2477226970252884,0.9193693161844163
2.58,0.6003626739249853,0.49612900813228494
2.584,-0.06780471568170587,-0.047890839979524764
2.588,-0.9478655101243336,-0.6878680039170956
2.592,-1.3594472425785806,-1.0753326586651837
2.596,-1.243547114275564,-0.9705964708386865
2.6,-0.3697955912787993,-0.31872076427845214
2.604,0.36934416827470207,0.3559927050556864
2.608,0.35554517022051313,0.2557313775310032
2.612,0.08518330052700943,0.04269899229781267
2.616,-0.017925379621810553,0.01520204571106361
2.62,0.06990972873978268,0.15247744495958707
2.624,0.3911164903065302,0.3344995713077834
2.628,0.28508948387936806,0.36779340744910405
2.632,0.03296993459356687,0.12026922017538477
2.636,0.04853553366145061,0.005602727773230238
2.64,0.2825914800138897,0.22600803198743044
2.644,0.43597619134090065,0.3241041373171207
2.648,0.2862097983566159,0.25938536932294676
2.652,0.11089159824911839,-0.009669195346505843
2.656,0.00963026322292531,-0.028082733120527524
2.66,0.16795121269909286,0.18027821326885077
2.664,0.4840775067474109,0.3530794344332604
2.668,0.39156058597222976,0.27848000824509017
2.672,0.30950908796334864,0.18753136641475243
2.676,0.005673992199290559,-0.04784785128323288
2.68,0.11162603484296202,0.17064738763105275
2.684,0.3126250621884321,0.25173696125155914
2.688,0.15071070724166383,0.11624007529137852
2.692,-0.04973376451467702,-0.15819298097702514
2.696,-0.2121762002028511,-0.2929723165634748
2.7,-0.11893330064298667,-0.06841532321930957
2.704,0.027526825981695473,0.09111639046088468
2.708,-0.0281636298798832,-0.0665148191103544
2.712,-0.21099110374154956,-0.2390345994155722
2.716,-0.30946965413076416,-0.30648593610812247
2.72,-0.06041700800987007,-0.04204316888145884
2.724,0.17495820459229552,0.2014030295499754
2.728,0.12134148039750428,0.1268447890396128
2.732,-0.1420451230446662,-0.10176380982519406
2.736,-0.022258046923522724,-0.0983714240398034
2.74,0.2712884959982984,0.20096662276110186
2.744,0.48429183999081843,0.3534138091038771
2.748,0.42627877838340517,0.36985591664763856
2.7520000000000002,0.32256972007199264,0.2606275180772741
2.7560000000000002,0.34402544337923774,0.2300936415789408
2.7600000000000002,0.5503461547992545,0.3865370866186795
2.7640000000000002,0.8168854552430636,0.5792229155841295
2.7680000000000002,0.730319076521399,0.542488208776736
2.7720000000000002,0.4198866342047313,0.3536630201852812
2.7760000000000002,0.3793853502314002,0.29817535939368855
2.7800000000000002,0.5621678539776963,0.4933585010186386
2.7840000000000003,0.7683403406071446,0.5726696601006893
2.7880000000000003,0.5924287252212439,0.5555626969238487
2.7920000000000003,0.2642250917155081,0.21695326657158634
2.7960000000000003,0.10412167094911792,0.13137712488413741
2.8000000000000003,0.24853867304221475,0.2417203076132032
2.8040000000000003,0.4450121481024698,0.3663232075157235
2.8080000000000003,0.2575874572513731,0.21386566880210717
2.8120000000000003,-0.09519180692034036,-0.0606658650624882
2.816,-0.18591787889442518,-0.15368470430976952
2.82,-0.08899849581772418,0.008739772081430952
2.824,0.04797188008441357,0.12192772137305435
2.828,-0.02580969877389145,0.028020539725699616
2.832,-0.192742418517601,-0.24170457159441
2.836,-0.33892304233704795,-0.3562778320237113
2.84,-0.14773805336726203,-0.07840151251461851
2.844,0.14024961484664594,0.06506458024168699
2.848,0.06893855342008173,0.08393108328442837
2.852,-0.13196137476362435,-0.11016273387683817
2.856,-0.026504313747055266,-0.16024736890155405
2.86,0.10993090244308282,0.13355628975558556
2.864,0.41787578772505807,0.37430091931353354
2.868,0.4641014309029017,0.2536223273100265
2.872,0.047845242361529094,0.02601138615325444
2.876,0.046973311162236096,0.04685282002793303
2.88,0.197790770330269,0.2094067104016724
2.884,0.44476140682062537,0.376939713870526
2.888,0.36550285216472445,0.32050020673801194
2.892,0.18148103977404711,0.053926897941155315
2.896,0.10769294707840199,0.08337786678099068
2.9,0.2925822107714039,0.18457393486761
2.904,0.47456099293382153,0.32787206477880937
2.908,0.30456998914547795,0.23479888862874135
2.912,0.14594074564629106,0.08123249320841203
2.916,0.04591052691638976,0.003717217013888028
2.92,0.2777350715053275,0.2053310304769033
2.924,0.42965315812349136,0.44094542358195726
2.928,0.33125715316948623,0.3284816573356562
2.932,0.06275928026660468,0.04833693199212459
2.936,0.0877441161331382,0.007959932309326838
2.94,0.29909986135795913,0.15629343089989503
2.944,0.4417621311534133,0.3667657415238801
2.948,0.4515922105620879,0.29413708460809634
2.952,0.18338780154242768,0.06690353483348546
2.956,-0.005861335429864285,0.039530768145319195
2.96,0.20577446512877043,0.20378164382033206
2.964,0.43480374424586477,0.36206427099689587
2.968,0.4014073497348339,0.26478305030497207
2.972,-7.52337563639377e-05,0.06988744676705816
2.976,0.08267317163728367,0.03902341905209408
2.98,0.24382662423260548,0.254041480745178
2.984,0.45480365645841203,0.35417537790129794
2.988,0.37760519843874024,0.30158860067200155
2.992,0.09099342866773091,0.07114581640637671
2.996,0.03062249175605307,0.05789894257956246
3.0,0.1922205580664376,0.12257569980774222
3.004,0.42867674298853703,0.3891036374306899
3.008,0.3239181399382379,0.32002146886888916
3.012,0.13464284585319428,0.026446836135002816
3.016,0.0354200137109891,0.04919010206898479
3.02,0.24980551485196364,0.18014174227369695
3.024,0.4682628367339855,0.302063497554088
3.028,0.3188457866352681,0.33186184627083437
3.032,0.08852774175305272,0.06205957577193262
3.036,0.07371007614881679,-0.024435215674977195
3.04,0.29237922760633456,0.18945315834093263
3.044,0.4809436902051431,0.3979703047463535
3.048,0.3509005193664112,0.3991815280200936
3.052,0.09447986388570775,0.10182851061473908
3.056,0.12329438905941044,0.08943339569660348
3.06,0.29227055967685434,0.16313298602518828
3.064,0.44558357037347446,0.37278250400193624
3.068,0.3138292850647312,0.36695021837284864
3.072,0.022179336375967043,0.0584774223982619
3.076,0.058043781395669444,0.046712693947219906
3.08,0.18209729617800133,0.19938335522896597
3.084,0.34231480399638614,0.3391042482118379
3.088,0.39575677721187996,0.26964826810351805
3.092,0.14359496459560248,0.10840575951106102
3.096,0.05675480307561501,0.02324464684400795
3.1,0.21638663219403392,0.1616979001851997
3.104,0.5044268023266336,0.3690017110526903
3.108,0.3253491371374012,0.30888799994000443
3.112,0.17273401793780335,0.08438674701542628
3.116,0.12582741147190135,0.03662068461756106
3.12,0.23877441066747546,0.17203939383930214
3.124,0.3610296118180155,0.4139621387772746
3.128,0.37490537524299816,0.2962235898486417
3.132,0.18230872978306784,0.13033529005909206
3.136,0.06688328548636122,-0.01146638480831342
3.14,0.3364523207574799,0.16656894609665088
3.144,0.4048254790171346,0.39010814205800676
3.148,0.3974344077661838,0.20975400855397958
3.152,0.13792369301335244,0.07172857920596752
3.156,0.10670857513531626,-0.006546265004279073
3.16,0.2106511705836976,0.26463976837429587
3.164,0.4280671832747981,0.32304920960530253
3.168,0.3430897164932019,0.2651999947540514
3.172,0.2159563214123562,0.05571449967082609
3.176,0.09489813814861961,0.08731627825388888
3.18,0.23327109070291294,0.1347034064749818
3.184,0.4381082401440964,0.39521316762995296
3.188,0.40497532805988,0.32119333229254604
3.192,0.04009639997151597,0.1576040104198195
3.196,0.10169663986496166,0.05390497616365214
3.2,0.31755610074472596,0.20696706609543966
3.204,0.44656930677938866,0.3896927841548265
3.208,0.361596051806087,0.29018648006457926
3.212,0.22265313029107464,0.0749576293515259
3.216,0.10969132190057194,0.0074690127075859696
3.22,0.25863931328359574,0.19050602477598455
3.224,0.4615759365476129,0.2766882275243624
3.228,0.40791073360004737,0.3808638134371686
3.232,0.16613153054817575,0.10682072386072378
3.236,0.0583213897868447,-0.14194497147597923
3.24,0.07126799414703171,0.03557796706291158
3.244,0.2484787570316528,0.20387678520646796
3.248,0.09014486326426888,0.08969365093520522
3.2520000000000002,-0.1415170466839984,-0.04299055457118369
3.2560000000000002,-0.10477561434563014,-0.11265557442764565
3.2600000000000002,0.11316501262194152,0.11374063118542468
3.2640000000000002,0.3951385766998268,0.4052174159166657
3.2680000000000002,0.48752073550566855,0.34619833672641953
3.2720000000000002,0.22156496971111478,0.24645989493448553
3.2760000000000002,0.34365177724576307,0.21925316514575707
3.2800000000000002,0.47780472997086626,0.27843279997091097
3.2840000000000003,0.6559644909708012,0.46308060806155615
3.2880000000000003,0.6297363202045216,0.43992394445825533
3.2920000000000003,0.12387230096355871,0.18830243776856498
3.2960000000000003,0.05791727863616569,-0.022506133594774522
3.3000000000000003,0.22547264393723515,0.06588636230372552
3.3040000000000003,0.23933958169699832,0.1685655148165897
3.3080000000000003,0.14304646139642713,0.2077253204129489
3.3120000000000003,-0.03188167684077313,-0.06855700213093555
3.3160000000000003,-0.10780160484467312,-0.11668786781888153
3.3200000000000003,0.11072600665903369,0.11651653349310774
3.3240000000000003,0.42797753335183947,0.36889172015062793
3.3280000000000003,0.4015590324039369,0.36948969106812224
3.332,0.13093152079652415,0.03170662478287603
3.336,0.16759502177924573,0.06752243059756452
3.34,0.22145221587719358,0.22819596913450324
3.344,0.49117904642584337,0.35723800840805753
3.348,0.34465948996811613,0.34296884656942256
3.352,0.09822325261672743,0.1179164175786769
3.356,0.008555030187550078,0.03774608317053349
3.36,0.2623868205626206,0.15172619837001733
3.364,0.4761737306810238,0.42675790379187173
3.368,0.3548051920569258,0.2808876830485566
3.372,0.23866497743270979,0.06970940394718728
3.376,0.014633151158269561,0.07203697076318394
3.38,0.25695244898475417,0.17601612085803492
3.384,0.4769532297629568,0.35832576039981673
3.388,0.4207787666014464,0.2957181132777491
3.392,0.12580131660442906,0.028527574475588915
3.396,0.12425512553905255,0.0908248302802234
3.4,-0.36678766161544296,-0.28762850372786686
3.404,-0.8015970720680589,-0.6540128022153325
3.408,-1.2460191857937566,-0.9040030002529028
3.412,-1.0656504091474943,-0.8308981702771286
3.416,-0.409601268349063,-0.38083173378319124
3.42,0.6721797930496959,0.5443073004696504
3.424,1.6053806925234622,1.308728946872084
3.428,1.8818067257130309,1.492570608967948
3.432,1.3760293947082383,1.1806160637449599
3.436,0.7494453783723473,0.5183374014451424
3.44,-0.06900087068405328,0.031609857767150085
3.444,-0.5835683219571461,-0.46043781012322
3.448,-1.129444148289598,-0.865281263668476
3.452,-1.276463419601009,-0.9235855731914939
3.456,-0.7606703470060215,-0.6481721878733545
3.46,0.3231460656646304,0.19377952543496688
3.464,0.4336204951041309,0.35354619968938666
3.468,0.34595695742192717,0.33876552855283115
3.472,0.19771596246664186,0.11555240276654205
3.476,0.0450319242995791,-0.03752885815054065
3.48,0.3415586527444525,0.14582248790732502
3.484,0.4448828986904152,0.42381426991245374
3.488,0.2633089134163154,0.3436227299423815
3.492,0.21278587661032028,0.14350695006779782
3.496,0.08543900203782762,0.06273771680146262
3.5,0.336013299383646,0.2288936358045393
3.504,0.4777817329147328,0.4449649529722198
3.508,0.4178123655652925,0.2150439320827215
3.512,0.12122705920232635,0.13943287814963745
3.516,0.039569588357169186,0.03051192825378443
3.52,0.33117868560302655,0.212641236748444
3.524,0.49251211870384304,0.39606222904599864
3.528,0.37901519316074994,0.4056296952166927
3.532,0.17417308566491757,0.21878641881299626
3.536,0.07104753910300116,0.05316204143850816
3.54,0.1080909645474408,0.025111682156906706
3.544,0.2766566882706606,0.215622875241696
3.548,0.13737710257297972,0.134035442165993
3.552,-0.1095764706843184,-0.15303953807126128
3.556,-0.2858606309653219,-0.22236614927470005
3.56,-0.0625183147394513,-0.059297250734993256
3.564,0.15471102896048036,0.09758367134582753
3.568,0.09817019369123854,0.018497929037395906
3.572,-0.17399640219378093,-0.18257422325325018
3.576,-0.2171653664579605,-0.20517682069601662
3.58,-0.008717070329715842,0.0018513194303064005
3.584,0.19490447200516903,0.18032473330902987
3.588,0.3000997458010134,0.21275358379952716
3.592,0.1021126309483823,0.0363939210610261
3.596,0.09678687058218399,0.09042819935901333
3.6,0.33292830525585115,0.24414956017322306
3.604,0.5937412696387024,0.46015924146902565
3.608,0.6148589909394531,0.5331498389524622
3.612,0.3801587910646938,0.3167996703447073
3.616,0.3231823704967043,0.284920533907943
3.62,0.6860783535508499,0.5386781816970148
3.624,0.8402895961896912,0.7120202213780995
3.628,0.6616062625169179,0.634242730033201
3.632,0.5824680224961968,0.4118766638610111
3.636,0.4258336829874395,0.323828675690933
3.64,0.5561990426280049,0.5058661103866078
3.644,0.6772572833962333,0.570573164733806
3.648,0.563951415088259,0.5363361317157309
3.652,0.21960574365328378,0.22998672497693634
3.656,0.23256314458385074,0.10458747775868601
3.66,0.24505660277827868,0.20650247530036378
3.664,0.49004810222336537,0.356741391607777
3.668,0.26057062556698457,0.29171239559679046
3.672,0.020904300016833813,-0.09487532114755581
3.676,-0.07876429498739092,-0.14822215433831282
3.68,-0.02198108335627414,-0.008791375122947798
3.684,0.10001277224991431,0.07238393177801677
3.688,-0.10684701407088637,0.09272250325966885
3.692,-0.20763589027640783,-0.2046464985186493
3.696,-0.20589435062356448,-0.23712005430702543
3.7,-0.04913684630197511,-0.08348629756340589
3.704,0.15505963902342063,0.2076448525417805
3.708,0.06958318185854187,0.1378698738890486
3.712,0.009399935329291571,-0.05238132257072278
3.716,-0.0622772493570426,-0.034458325747926295
3.72,0.26165087555119343,0.1458990781991378
3.724,0.482296061801981,0.43410619385281246
3.728,0.5064362497488595,0.38378912124702874
3.732,0.20614934841652038,0.16039659064313788
3.736,0.10362277937945688,0.08466678060490171
3.74,0.22612408605677287,0.1835577157282211
3.744,0.4460408401778401,0.4019791613113406
3.748,0.44784363740324196,0.3361317692154263
3.7520000000000002,0.15536606991239152,0.15825980591793226
3.7560000000000002,-0.04960740081894896,0.09839787074921388
3.7600000000000002,0.23716900012797953,0.2605912435883549
3.7640000000000002,0.40676017687931754,0.42709305876258885
3.7680000000000002,0.46709798509806233,0.36138550170199296
3.7720000000000002,0.12805254244142736,0.1723677356628403
3.7760000000000002,0.06367238850307859,0.07318230762136273
3.7800000000000002,0.2914759713660205,0.17941366918191942
3.7840000000000003,0.47699689701994336,0.4147421176983976
3.7880000000000003,0.34001281195743893,0.3568728626639224
3.7920000000000003,0.23138196145990686,0.05095457236781893
3.7960000000000003,0.18512256928005488,-0.017554754989161855
3.8000000000000003,0.2709035609431806,0.20534161026853326
3.8040000000000003,0.5038982665180917,0.413576486179936
3.8080000000000003,0.3636351085132223,0.37718647407031214
3.8120000000000003,0.10333224933231344,0.1141997956058657
3.8160000000000003,0.07673326931972807,-0.003041011979387734
3.8200000000000003,0.30306374463186814,0.2826475894459427
3.8240000000000003,0.4184954749676449,0.38831917897943075
3.8280000000000003,0.37813838292495855,0.3562019206016282
3.8320000000000003,0.07719324870570454,0.11610508954162224
3.8360000000000003,0.06927725340979288,0.014516520388258583
3.84,0.2600678459998561,0.1884960422437656
3.844,0.5388898826280445,0.4500008785239588
3.848,0.44182592443701396,0.3442510243946614
3.852,0.13971164120189847,0.0510102297443394
3.856,0.10932676358469351,0.07013863702310136
3.86,0.2321772741829822,0.30628104453857485
3.864,0.5044933365201844,0.3815929925835984
3.868,0.44704037973342137,0.34351549144221205
3.872,0.12331180751270457,0.11588580322240805
3.876,0.21340134323446774,0.11537919842471192
3.88,0.2783934629289527,0.20999095688093153
3.884,0.46247140720439067,0.3466562127160635
3.888,0.43975596184974713,0.3062804663037105
3.892,0.1609577147216978,0.113819110483052
3.896,0.15107669247802813,0.08390320427953067
3.9,0.23933418332369444,0.18601476885732188
3.904,0.4983953253826515,0.38158578002080684
3.908,0.35003157482567016,0.30349578877263045
3.912,0.22298815069854855,0.14510484263389
3.916,0.13728338180458893,0.03011590026486869
3.92,0.28322624212406367,0.2563979141090195
3.924,0.3326591988719386,0.4276844998093936
3.928,0.4928047226814941,0.3487584906313465
3.932,0.11257170616869602,0.10144438820576201
3.936,0.07969537008452647,0.05888805734033028
3.94,0.33726963517914127,0.2671304296566499
3.944,0.42843145341552036,0.38547684363247703
3.948,0.42244450238572673,0.36508949177968786
3.952,0.17069911147906422,0.10423341152729214
3.956,0.06181001161417854,0.023149290425407414
3.96,0.3344639569485898,0.27321053509865817
3.964,0.4098633249161886,0.44425426680910735
3.968,0.4075821816909885,0.36355441456466125
3.972,0.20701846363813808,0.15228184891297164
3.976,0.19821903438493663,0.09975019951735035
3.98,0.3419036353458848,0.19188869153501797
3.984,0.4852276401109686,0.38992137965222656
3.988,0.304162693110948,0.3382136582495136
3.992,0.0882849943548442,0.08680957800576661
3.996,0.07041103067276117,-0.057867331435371136
4.0,0.269337569392013,0.2451480629889548
4.0040000000000004,0.5154493856469149,0.35462901459218493
4.008,0.49567029190946116,0.3087118803099488
4.0120000000000005,0.19124889523480854,0.07316335403580305
4.016,0.0796893596444692,0.057928193812514954
4.0200000000000005,0.2921875146349135,0.21001448978440007
4.024,0.542012894645237,0.3772228239013638
4.0280000000000005,0.3811506273090231,0.3105102539490161
4.032,0.20944804796997285,0.11963341322370138
4.0360000000000005,0.14156208540939796,0.0773742752223177
4.04,0.2345988119174588,0.19398350222485128
4.0440000000000005,0.5133093439893961,0.3503023458441542
4.048,0.4337253391697511,0.26110093736320295
4.0520000000000005,0.19252003061685485,0.16988017362798158
4.056,0.1609540213779257,0.060057382023245884
4.0600000000000005,0.2893381466672696,0.24095605841253032
4.064,0.45676020964281877,0.41304785685961937
4.0680000000000005,0.4861155376414709,0.3330053723954552
4.072,0.17969769211697,0.12240631889837231
4.0760000000000005,0.059514773046169894,0.03415592003501898
4.08,0.3479618331937627,0.1961887068750966
4.0840000000000005,0.49134900070826154,0.42434811313458837
4.088,0.4996959983304949,0.3282354481935173
4.0920000000000005,0.12278100441624751,-0.01068384325549289
4.096,-0.12126586983113635,-0.08485143620048895
4.1,0.042979252799892495,-0.032627912555248446
4.104,0.21499898881638702,0.11087458829110318
4.108,0.11932413748093681,0.13868782903284446
4.112,-0.08178702774796706,-0.08043638279887785
4.116,0.03347120829813467,-0.009915022441632707
4.12,0.2826170746742626,0.26209331003565545
4.124,0.577129199049253,0.45877878511176196
4.128,0.5709280516153048,0.48232852672993715
4.132,0.45316738276260676,0.3415409973363192
4.136,0.31557005272527144,0.2693449291545043
4.14,0.44501554674900196,0.4080974887167167
4.144,0.671614513899423,0.5898642423645443
4.148,0.4585270356922698,0.3959368277278653
4.152,0.16468130860738137,0.09176107024132678
4.156,-0.048480181347263784,-0.0461646229261998
4.16,0.029483734282381616,0.12514983510123373
4.164,0.22970941469923506,0.2158641276743159
4.168,0.12260726356402141,0.20837340631856616
4.172,-0.03823470827748622,-0.047767744931936966
4.176,-0.059613330326495594,-0.04963100717662382
4.18,0.21612959485220773,0.19600368307172994
4.184,0.5314227199811912,0.45788248588129216
4.188,0.5056908576489095,0.41605927359899864
4.192,0.1353497521499008,0.12472266481420453
4.196,0.17031381870529744,0.14485926544561456
4.2,0.2119560072407591,0.19166399353930064
4.204,0.48588317782559515,0.41033853116364366
4.208,0.4321846552028929,0.3295377110965398
4.212,0.23375815935500116,0.0678340742103563
4.216,0.11901564634369781,0.07241608989566606
4.22,0.16842729014370084,0.2555454145898003
4.224,0.441997579198811,0.45653159744962135
4.228,0.3721858321011174,0.3880273449485979
4.232,0.2646891232702334,0.15690484861717674
4.236,0.10813799481154891,0.07609833280696424
4.24,0.2351216308412204,0.2418824255031313
4.244,0.5444827882773309,0.4250195995944694
4.248,0.43129211139978735,0.43031704467013443
4.252,0.19265305150626252,0.11453736899550823
4.256,-0.24325214107579043,-0.23762581416867948
4.26,-0.8353267106373011,-0.6808824010196126
4.264,-1.008497790063826,-0.7966325414587577
4.268,-0.8844152192829636,-0.7581696040568265
4.272,-0.41127587574043123,-0.4291218166960454
4.276,0.3471872964479153,0.2187966639398717
4.28,1.2810896874334394,1.059732191793045
4.284,1.9104002172356125,1.5340128155398478
4.288,1.7679367007333016,1.4729547265522969
4.292,1.0271308983522656,0.8271623814577249
4.296,0.12333282297052753,0.09719944244619776
4.3,-0.6725029948234995,-0.39817285594890167
4.304,-0.894880196815121,-0.6706857872950264
4.308,-1.0890299970931807,-0.8591293839311641
4.312,-0.8377466758830712,-0.7467063961855359
4.316,0.08200336801127232,0.1348535130709033
4.32,0.32755865471424767,0.2637300511348981
4.324,0.387575047613678,0.38117883120040247
4.328,0.4404306275420777,0.3235878068307197
4.332,0.19933276661432328,0.06621450329441632
4.336,0.06998616110587075,0.08019938412230423
4.34,0.2689412728720871,0.1988394442659034
4.344,0.531229081716755,0.4013676180276249
4.348,0.433812192054911,0.3663472833171351
4.352,0.13035846973043894,0.1060746394231137
4.356,0.057335369174150885,0.04905011615588917
4.36,0.3078236343470602,0.2569855710834797
4.364,0.5400409979383372,0.3758785910445473
4.368,0.4331052465028407,0.3223364104653412
4.372,0.18724455039367863,0.12861672571715327
4.376,0.012883469898287828,0.0979146626986205
4.38,0.32330085882983395,0.3067108593830061
4.384,0.4967475401779516,0.42221104616146726
4.388,0.4435904828938271,0.39536457584047136
4.392,0.1669595806687177,0.10489830584062443
4.396,0.01587972861791074,-0.00796786955743025
4.4,0.028946533072500225,0.10240412045895525
4.404,0.3192920880674745,0.25577793306343294
4.408,0.03142572503625454,0.15378487196894747
4.412,-0.10550985879636621,-0.10797365214738355
4.416,-0.2193592991950884,-0.24271645647944548
4.42,-0.049308761483598376,-0.026963508994489287
4.424,0.10805621763519435,0.11747202374157742
4.428,0.08228980134491239,0.09091998837152668
4.432,-0.11547433323063325,-0.12571813745111932
4.436,-0.19972764980410662,-0.11041657441763898
4.44,0.06276394226392104,0.052014143214795604
4.444,0.29646275803604927,0.20309529827122164
4.448,0.29512939957018114,0.28904470254913384
4.452,0.07424630497266144,0.10497419054848244
4.456,0.1919476460915603,0.08468046546313383
4.46,0.4024678024974413,0.30211524148810953
4.464,0.665868924837677,0.5774877875934618
4.468,0.6020844393322758,0.5452299921130948
4.472,0.3769112998903404,0.46633337395490326
4.476,0.3538673188741084,0.3579954177320995
4.48,0.598613303269203,0.48298940429037623
4.484,0.8982598872274015,0.724361772170693
4.488,0.7576192551964248,0.6414996268692048
4.492,0.5707464014678271,0.410151849326785
4.496,0.39412362686750296,0.25086105244204504
4.5,0.6034805018607852,0.45772381751207386
4.5040000000000004,0.7094355611719553,0.6417287114671912
4.508,0.47231877964115565,0.511706089351776
4.5120000000000005,0.32822292839897904,0.24141093733759852
4.516,0.16226330046721402,0.07805362692496172
4.5200000000000005,0.23442370863087006,0.18833126719413346
4.524,0.32907881917092185,0.3073165093039148
4.5280000000000005,0.17273219655539276,0.1486029531662137
4.532,-0.026468697597146842,-0.06186906839154736
4.5360000000000005,-0.20765905065372972,-0.16758094276765617
4.54,-0.0601684949220375,-0.053425631169029486
4.5440000000000005,0.1337042100328261,0.13829775966267277
4.548,0.08406693356342133,0.03471006837310267
4.5520000000000005,-0.07495057243778587,-0.1494710390973361
4.556,-0.1828297260010322,-0.30475700447169096
4.5600000000000005,-0.01729515019444294,-0.020092221486179875
4.564,0.2799822567720102,0.16280485874923936
4.5680000000000005,0.0456064916947955,0.14180219225744692
4.572,0.08332213717356264,0.007586200648373809
4.5760000000000005,-0.006592079957500906,-0.01385492084508885
4.58,0.24956287271631047,0.23370445277736246
4.5840000000000005,0.6075485993420595,0.4024270277114039
4.588,0.43476266353745013,0.3816647511947828
4.5920000000000005,0.18442548457859909,0.155184784841645
4.596,0.14427402993625177,0.09258832431543125
4.6000000000000005,0.24960576749103414,0.17540389993282257
4.604,0.45519826316381906,0.3596682364284098
4.6080000000000005,0.3518418006681932,0.3228989940383316
4.612,0.11982011584150996,0.12199423217461688
4.616,0.1212586457844672,0.11806183996774536
4.62,0.3489268945633748,0.2607385118548328
4.624,0.5372251936596959,0.42084890773472156
4.628,0.3863230794374633,0.40719309288953964
4.632,0.2672336254271625,0.12737134696396937
4.636,0.1019274604770663,0.025179688924499476
4.64,0.2646057052034321,0.24224810744157993
4.644,0.49059866912163774,0.4365138017268837
4.648,0.42491607709929097,0.322958814929681
4.652,0.17601222369761665,0.1729591731171461
4.656,0.1947231323654616,-0.012378966645254744
4.66,0.22737041831109253,0.234880029572753
4.664,0.5318522287408626,0.45476385933007224
4.668,0.35836604202912553,0.3045343277207271
4.672,0.2277493697371899,0.20359414700999479
4.676,0.09259705575308746,0.01738837720463343
4.68,0.23901643427284075,0.19587681845188223
4.684,0.4194360152931905,0.3490917477058422
4.688,0.4336201895892293,0.40943191817912983
4.692,0.2091658378074985,0.09454435054716631
4.696,0.13640002251388814,0.08873967411572847
4.7,0.29227229076108374,0.2412861436710419
4.704,0.5033936074646284,0.40794295152416804
4.708,0.34276569872823653,0.37738431050254817
4.712,0.08505111008839203,0.20385652987529485
4.716,0.012703319288600703,0.08638098202554036
4.72,0.22552424687667447,0.23441895281865824
4.724,0.456555005553569,0.4364372114658825
4.728,0.4475009520560828,0.35852804838289026
4.732,0.19715416458068288,0.11615124323399012
4.736,0.1313184230835783,0.032407279497686285
4.74,0.24379657608691296,0.22255728559411364
4.744,0.47142713006296044,0.45979816999241585
4.748,0.39586740796658004,0.3118040435852996
4.752,0.1337267745127197,0.1545854920272
4.756,0.14939990367492706,0.02549798748172235
4.76,0.23681097135199938,0.21765214948485787
4.764,0.48497044286019286,0.3831176853901489
4.768,0.41006099909263694,0.29871497002097347
4.772,0.1072706986790211,0.1526036439475871
4.776,0.1913387759096886,0.07409761795283337
4.78,0.2569038202205321,0.259671470945693
4.784,0.42792286205772256,0.40921666380814736
4.788,0.40479494566374524,0.3805172909652338
4.792,0.12416061212082827,0.10819678969484661
4.796,0.2368345360742821,0.051840921726565764
4.8,0.26621140783235725,0.18675037706928677
4.804,0.553560940851796,0.4361488336072884
4.808,0.37912083062863583,0.3424969808411302
4.812,0.12838915515642593,0.12836689298642578
4.816,0.11205594047125508,0.12492952537938318
4.82,0.3328013877127388,0.25875028088947616
4.824,0.48535724424957416,0.37606752991567466
4.828,0.4575628392355945,0.2706019951473087
4.832,0.19800936750910875,0.13155626632310038
4.836,0.08756236448009827,0.012220528185142056
4.84,0.32268728149330755,0.22863358270421935
4.844,0.5309945207498041,0.4120940383211394
4.848,0.44536779834799906,0.3448495991373851
4.852,0.14791573720694345,0.17047626057602194
4.856,0.15465167181684472,0.04398412575900862
4.86,0.32956281130813175,0.19808273532022322
4.864,0.4871903946956066,0.4136028243310829
4.868,0.473733444789721,0.3451864740635496
4.872,0.21253333838979768,0.07376684205811329
4.876,0.08073029116767522,0.12285653439492311
4.88,0.16951015852885729,0.24218194631498854
4.884,0.5683825528978874,0.4658995626879897
4.888,0.3758852219337354,0.3349102137987316
4.892,0.23277165617278162,0.07602492574221788
4.896,0.02687113308415094,0.06314496544163374
4.9,0.2652328512981702,0.22020523192896935
4.904,0.6088714689357425,0.3814421432772787
4.908,0.40721532295295343,0.32115329814300075
4.912,0.22290565966582904,0.16063199850550697
4.916,0.07451494727634392,0.0741834141144541
4.92,0.2854026937915374,0.20301194128198424
4.924,0.49500173974856343,0.42949361956705245
4.928,0.33891299884952997,0.35957584641672086
4.932,0.27221985957010003,0.17002216566480285
4.936,0.11218356200403962,0.07675568675216098
4.94,0.3224813749092044,0.2332715134343479
4.944,0.5684217093594838,0.4257355437948379
4.948,0.4006479745905158,0.2628321714990621
4.952,0.12750339576650854,0.10045454905423917
4.956,-0.21415621740255852,-0.12522543898458052
4.96,0.05557551777240326,0.06753598913116748
4.964,0.24169743206408886,0.24639905456399377
4.968,0.26345977049818653,0.20925040890412117
4.972,0.10345774793272491,0.02192082129523061
4.976,0.022799473721355046,0.06225315230018551
4.98,0.3917832739094114,0.3706574677836102
4.984,0.6777958216252806,0.5614921894151148
4.988,0.656588398833068,0.5527916517120715
4.992,0.38735579441154033,0.34998333496957407
4.996,0.38887934180618083,0.26791606567554116
5.0,0.5082616713427592,0.36137515703344164
5.0040000000000004,0.6360512435640937,0.4435463912051867
5.008,0.3216778434676484,0.40133027134462135
5.0120000000000005,0.08638450560564759,0.0700599787808123
5.016,-0.08801565245519624,-0.10805271983694839
5.0200000000000005,0.08266503962669788,0.11229973174661997
5.024,0.25007899357387436,0.2075856474921563
5.0280000000000005,0.12429274371216031,0.14699408539875242
5.032,-0.004121598900650664,-0.01476492554883361
5.0360000000000005,0.09627056151378098,0.00791120920866848
5.04,0.29819649790175723,0.2580242216914159
5.0440000000000005,0.43134031159367014,0.42887032457625074
5.048,0.4294576549256365,0.36737781452659424
5.0520000000000005,0.19358235800157697,0.12005910867638288
5.056,0.2212224542402548,0.09693229162065829
5.0600000000000005,0.35268301553746634,0.30199536711100744
5.064,0.4797060150087447,0.37794865314228504
5.0680000000000005,0.4691427577970276,0.4351581208428958
5.072,0.18096101661050848,0.15487960662063238
5.0760000000000005,0.10668608061729597,0.019716126071363346
5.08,0.25517312838909834,0.19343074098566115
5.0840000000000005,0.5013989465738458,0.3470156243572745
5.088,0.2955932698621126,0.3806593300659368
5.0920000000000005,0.13733122465073064,0.11262069812530272
5.096,0.0407604993533839,0.07229153615243852
5.1000000000000005,0.32508206273557033,0.26968924007025796
5.104,0.5093848131036539,0.4470932998189291
5.1080000000000005,0.5088026410073349,0.38410632400123623
5.112,0.13389631201276414,0.18876910978390563
5.1160000000000005,-0.8204065327313316,-0.6681423056515909
5.12,-1.0353587004769769,-0.9274867257206231
5.124,-0.9201352959368934,-0.6466828193688012
5.128,-0.3940078951792919,-0.32155317488386925
5.132,0.08309298173173606,0.05603725135018083
5.136,0.9141322942930078,0.6228716727881919
5.14,1.715158055301305,1.3755778329453643
5.144,2.027879784920593,1.5938395665400986
5.148,1.4901374573506119,1.2780276890939168
5.152,0.43641067210586115,0.41807858553174304
5.156,-0.4827935342417918,-0.4010422004382653
5.16,-0.9925374399594993,-0.7612462473547319
5.164,-1.004947103141382,-0.8602602288339983
5.168,-0.7342185726801087,-0.6775738004076858
5.172,-0.3225347808915581,-0.30215471506555447
5.176,0.11050898025361569,0.04695603678066306
5.18,0.2581531678091416,0.3032728152512328
5.184,0.39714977969975773,0.4485018121348211
5.188,0.4497034257489146,0.31671452593337174
5.192,0.18753085015763998,0.13587255067148654
5.196,0.13998134546766255,0.12968699631741895
5.2,0.32395679341004796,0.2490177747439113
5.204,0.5434032986005153,0.3921290759892973
5.208,0.43851105621584274,0.3642198881320562
5.212,0.2972676323444303,0.06111660614550547
5.216,0.08213455346705018,0.09082546443616057
5.22,0.3433743949658421,0.19181507101039846
5.224,0.4812943149719147,0.41368808464897033
5.228,0.5185218618430846,0.3774542933045198
5.232,0.19632381704960158,0.08552035262243292
5.236,0.11069626387308418,0.030799888125471617
5.24,0.34527607929004006,0.2602353382032456
5.244,0.6144027482313902,0.502437769587049
5.248,0.516478999933698,0.37395210409708657
5.252,0.08515930194817975,0.08221171888225112
5.256,-0.012578204925597768,-0.0366357598910338
5.26,0.14040034877875163,0.1150331572095622
5.264,0.1955677805465643,0.11526119129122038
5.268,0.10227265472439602,0.09087958523651472
5.272,-0.17822744732703302,-0.12981086678982243
5.276,-0.1839449290068159,-0.20697538791083717
5.28,-0.057560818036197836,-0.11033806590820447
5.284,0.10070371953618966,0.09133408250216242
5.288,0.0028156547512297597,-0.007613718457972415
5.292,-0.13992063254121245,-0.16349343199461636
5.296,-0.15588104153557544,-0.1066293075754724
5.3,0.13782293841265938,0.10757052959655387
5.304,0.4150052448639342,0.30649894168276676
5.308,0.34182438820670424,0.2618260274006783
5.312,0.063451368455754,0.13954719401984883
5.316,0.21994207605689184,0.10200296581762584
5.32,0.40294512582020997,0.3574249739246859
5.324,0.7114283521891323,0.5810310369258974
5.328,0.7289307045903066,0.5399139668839715
5.332,0.4492729786590793,0.4325751471338494
5.336,0.4558669879227185,0.29456311267655744
5.34,0.61026259555034,0.5428520137747872
5.344,0.8343511841413838,0.6434836042762494
5.348,0.7574022085609713,0.630992946316206
5.352,0.5332528055824352,0.3881375603464484
5.356,0.2738465695151141,0.30685032257519723
5.36,0.5158211804932733,0.47686990390500383
5.364,0.6982987632352659,0.5692839615146899
5.368,0.5772516041370759,0.4308539593313436
5.372,0.24490910965902493,0.20758611079305053
5.376,0.09498551025421544,0.052974070654430015
5.38,0.18772245331360737,0.14895142441025366
5.384,0.3584469216950617,0.2087017101547573
5.388,0.14602948425593648,0.1539330110867305
5.392,-0.08127302926521213,-0.17200674701638985
5.396,-0.30335946112198564,-0.19608892761883037
5.4,-0.07751647448293844,-0.08737725754921169
5.404,0.12892697692381255,0.03658784024947233
5.408,0.08975659515472968,0.03990598451373614
5.412,-0.15696874108382858,-0.04565738713304417
5.416,-0.28147157757370184,-0.19529755546955063
5.42,-0.001030498491652987,0.10721623280922259
5.424,0.3488686274643113,0.282707927833269
5.428,0.11602050485702164,0.22075138216110257
5.432,0.12888809906170132,0.04642983308054356
5.436,0.1419964351414,0.096839267761553
5.44,0.3201271382214194,0.27988992012523123
5.444,0.48292622910375216,0.3833590829873615
5.448,0.41417369579975566,0.24115013015486209
5.452,0.19313087632344408,0.07974885183852518
5.456,0.1361466850252356,0.16550826907785826
5.46,0.28145678678049296,0.25703346586163894
5.464,0.4518715978464749,0.41682117225017856
5.468,0.41996219397441575,0.3494982602196007
5.472,0.1795474066507083,0.10936235541054062
5.476,0.17437951190592982,0.1246769270422581
5.48,0.3159773345615096,0.310598510581105
5.484,0.46443278706426205,0.48553883859521485
5.488,0.4926068830356261,0.364330396422088
5.492,0.09805202740795918,0.1626207557896398
5.496,0.1704209270258255,0.09086994524385925
5.5,0.33779245890011483,0.20861781387072464
5.5040000000000004,0.5172713578070659,0.4091846976003823
5.508,0.370784340839997,0.38012194908735714
5.5120000000000005,0.21080234007663726,0.09933923893698146
5.516,0.017016315672871707,0.05464837054804221
5.5200000000000005,0.3176985082595229,0.2022274413547625
5.524,0.528353855583096,0.3952431881665315
5.5280000000000005,0.4241993313275087,0.2968654637936891
5.532,0.21402032540375357,0.11787340786729156
5.5360000000000005,0.11724371147118728,0.10819273249166103
5.54,0.33151810196027226,0.25314917435818546
5.5440000000000005,0.5100881923186281,0.36197950904256615
5.548,0.5764232146696049,0.28862428563723924
5.5520000000000005,0.2075540898288261,0.12714090737869757
5.556,0.13551250452311936,0.04130279338802669
5.5600000000000005,0.19744837237139612,0.21349970914636984
5.564,0.4139755306805488,0.4217035979243202
5.5680000000000005,0.3936910552003184,0.3954601935596413
5.572,0.11071366923001073,0.14865166630513088
5.5760000000000005,0.08028145766668382,0.06188060117778378
5.58,0.26120599964292346,0.2943068662439529
5.5840000000000005,0.4958168464299408,0.32972439097671385
5.588,0.373838008023891,0.41029196166976034
5.5920000000000005,0.1372281036423461,0.15581184534118225
5.596,0.1803907491091291,0.04637925044621082
5.6000000000000005,0.31217421457491984,0.24719487580977756
5.604,0.524102531079908,0.46026545710206
5.6080000000000005,0.45490775581922444,0.3392498252229988
5.612,0.09946654349394174,0.17118060105743374
5.6160000000000005,-0.0030515488636862487,0.01859296703091383
5.62,0.31134605505388047,0.258738044494188
5.6240000000000006,0.3566147564992554,0.4442974344796292
5.628,0.414993498016195,0.27716581126417156
5.632,0.1921842350015284,0.16054216197983712
5.636,0.08758033956415695,0.013747850640876039
5.64,0.2625765307909494,0.2363687975689056
5.644,0.5124282337429301,0.426315771358181
5.648,0.42171626147687385,0.2958424222906735
5.652,0.14141475607598222,0.09177661096701271
5.656,0.049229721878024296,0.016563501715714114
5.66,0.2820206805273202,0.2409993320538551
5.664,0.4548003192142596,0.3871647404106919
5.668,0.3803678056186128,0.3765237614904339
5.672,0.1019392527561364,0.1421017934213888
5.676,0.1287255362426097,0.03168879403265858
5.68,0.32255289969174805,0.1651344471067807
5.684,0.4546684321529177,0.39094696725160094
5.688,0.4188730522440362,0.30772375642651817
5.692,0.16855033529191504,0.141332191730853
5.696,0.09702107994772655,0.07769396432001723
5.7,0.3398377822965202,0.2678086486779578
5.704,0.49758097411089025,0.38681653135645655
5.708,0.4635761880772623,0.3716317342387633
5.712,0.17789967327713493,0.12190362979554417
5.716,0.09605818964047051,0.08258257018521754
5.72,0.26427059421149224,0.2766023870234571
5.724,0.433029307074283,0.44300294878542706
5.728,0.4117774977179797,0.4291699825312548
5.732,0.13821186356483275,0.11229101803063164
5.736,0.1390941441951774,0.07916782284244347
5.74,0.2656406450249003,0.22509359559644102
5.744,0.49486698147175895,0.4141369147570032
5.748,0.38900981739959734,0.36828528437431207
5.752,0.20970740080475767,0.13786016250469543
5.756,0.2102147871852846,0.08595835193169629
5.76,0.33323050283609,0.21783204333488512
5.764,0.5627164658504537,0.45458003665488556
5.768,0.3929359621567814,0.26455131868716897
5.772,0.2156620832390825,0.15400392371755886
5.776,0.11735140337314512,0.09615773741611952
5.78,0.19727201473517625,0.22845840792169125
5.784,0.5115175866581398,0.40322728492534116
5.788,0.43611302505653216,0.26802516538345883
5.792,0.15874296309249236,0.14312567346067123
5.796,0.19588945607797384,0.09145544532937873
5.8,0.3011322084142082,0.20492353574841127
5.804,0.4515877710494821,0.4221148224395912
5.808,0.3667191942166501,0.2921424582172028
5.812,-0.019018502932903605,0.005043591084465622
5.816,-0.22276630283212684,-0.1277623922277134
5.82,0.0800205381806928,0.024760444043784496
5.824,0.264899039273273,0.2777928011550293
5.828,0.33996805222370363,0.1921504554854131
5.832,0.08272496043222977,0.07656447450137417
5.836,0.10323218841013382,0.14509622575775732
5.84,0.46020438642851175,0.3945539330983215
5.844,0.685730749212061,0.5211198929668306
5.848,0.6666785619318304,0.546898386044484
5.852,0.5007946047451505,0.30772316723066573
5.856,0.3293368555167497,0.2065540239262452
5.86,0.4924902048132702,0.34528040335073396
5.864,0.587172933942782,0.37796180858877754
5.868,0.31311455762251056,0.2337200838300334
5.872,-0.012330202592442857,-0.03474062224709841
5.876,-0.07882489329925779,-0.08171473561593937
5.88,0.020754228552294612,0.035847037194957826
5.884,0.3005085717434742,0.23761906912770345
5.888,0.1919365529323788,0.22745140875266318
5.892,0.13585140289913222,-0.047234471137422004
5.896,0.009668119038890893,0.01360115756994059
5.9,0.3021345497423384,0.2520931423880488
5.904,0.529157839678649,0.44534575032338
5.908,0.3822914939515857,0.33297346551808776
5.912,0.10844461230301036,0.10881426909005147
5.916,0.12972088723132094,0.05749592302173466
5.92,0.4035801431447666,0.2553302806057082
5.924,0.47824273822284746,0.41550766859094734
5.928,0.3974086992873341,0.4237563399742989
5.932,0.108391077977193,0.09350411337586681
5.936,0.02936442380417878,0.07813791278544366
5.94,0.22979791940039804,0.2291963805193013
5.944,0.4682890412134795,0.426362899435524
5.948,0.5147871876399809,0.3008097103633862
5.952,0.18577962756796368,0.0962372755160314
5.956,0.1110654456177616,0.0870190534779755
5.96,0.2861678545334833,0.22886817269957155
5.964,0.4672366474401889,0.42982557163787705
5.968,0.3414658516679092,0.33536650715851907
5.972,-0.6697376352557097,-0.485050097192973
5.976,-1.1722066419476402,-0.9894451821179301
5.98,-1.2211513969845142,-0.9276650990327262
5.984,-0.6684251065521943,-0.5521186274191338
5.988,0.019317384984938922,0.009361674100009112
5.992,0.7175232960038581,0.5227906855263098
5.996,1.2641018330599536,1.1283386019834754
6.0,1.8095560889188285,1.4196735843735417
6.0040000000000004,1.701763367486009,1.366791343767592
6.008,0.9775647923260501,0.763833777942704
6.0120000000000005,-0.10958574754874961,-0.17843031728470687
6.016,-1.080217892506993,-0.7917461434199281
6.0200000000000005,-1.1131684592274709,-0.9689467659572526
6.024,-0.8373221082760858,-0.6000931241862033
6.0280000000000005,-0.42944417471348223,-0.2058918526394418
6.032,0.2259247198651248,0.16927948204779997
6.0360000000000005,0.2236080331446741,0.125375405581736
6.04,0.2424981282447857,0.23596949702473738
6.0440000000000005,0.40012781270891656,0.3731186318200652
6.048,0.4084271783099333,0.33811397585217634
6.0520000000000005,0.18881742107206556,0.1395173892985444
6.056,0.0031364310077507396,0.0500744498029221
6.0600000000000005,0.31728286158898555,0.2906228218163709
6.064,0.4968482871694039,0.3551781928945061
6.0680000000000005,0.41172243690686383,0.28404131362852625
6.072,0.1371046523379074,0.16384216229144638
6.0760000000000005,0.10716659873282024,0.08345767194931922
6.08,0.38100387810455905,0.2562594779721766
6.0840000000000005,0.36225307990386096,0.4439123981352129
6.088,0.4107306917507172,0.2388328295279833
6.0920000000000005,0.1197654695631801,0.09352225028368413
6.096,0.08146015390549775,0.08707705690453313
6.1000000000000005,0.30177998549850515,0.1571890059610428
6.104,0.6050957982855615,0.34348824942514194
6.1080000000000005,0.3673798450907525,0.3284387564629102
6.112,-0.019728364221772987,-0.009708823437995201
6.1160000000000005,-0.07942517593189198,-0.11328225590514968
6.12,0.07803777032547114,0.012277852306433912
6.1240000000000006,0.19792693189419436,0.18636136930495065
6.128,0.11028334072538781,0.11199234081187875
6.132000000000001,-0.24608299666650668,-0.22132648423657367
6.136,-0.283666002617271,-0.23960749063316725
6.140000000000001,-0.07555375854323629,-0.03345297318703999
6.144,0.09085323294599405,0.04679060186340166
6.148,0.16140640668171147,0.052392678214214
6.152,-0.15266959702580268,-0.14691674500921162
6.156,-0.19807442790772764,-0.06352627458183756
6.16,0.1956677987166789,0.15572582543125638
6.164,0.33188544780688417,0.4045539878833896
6.168,0.35179690822015075,0.30392987561719104
6.172,0.21636867020881162,0.23228842984529224
6.176,0.13648997395856327,0.23094088839721072
6.18,0.379553292346478,0.4252615694530997
6.184,0.7880453345058527,0.6079557132023837
6.188,0.6754604303892632,0.6042668473947311
6.192,0.5361286165714447,0.42012424838972956
6.196,0.39947337308215447,0.39682868887743283
6.2,0.5267019078905028,0.5189350700792719
6.204,0.802674656273121,0.5933615221957083
6.208,0.706825981219776,0.5833748758799376
6.212,0.45767167296885874,0.41041864898419994
6.216,0.3285894337405767,0.180129551724348
6.22,0.449829113961068,0.3464292439582377
6.224,0.6838150124448238,0.47249604460621664
6.228,0.4053097996236822,0.3668289211814781
6.232,0.11717264186009571,0.039425348511623604
6.236,0.022824289253915823,0.051026359489182146
6.24,0.2555337738926212,0.023466028293457952
6.244,0.3625777665496174,0.21201401966285072
6.248,0.2255718226095138,0.045086688469869046
6.252,-0.12158883960987779,-0.07585973014298057
6.256,-0.22278066372033548,-0.22695946525265048
6.26,-0.06398512937495732,-0.05276600419960726
6.264,0.09898995831716471,0.11706652585120075
6.268,-0.007229398638550488,0.0005718244463639999
6.272,-0.1942166669313211,-0.11454334799648999
6.276,-0.0898832741292166,-0.10882507615623353
6.28,0.11537767624958253,-0.039909139402246524
6.284,0.32063900609047036,0.26064451263438126
6.288,0.2161626323043343,0.2770167996162202
6.292,0.07363416108891331,0.06695628164976872
6.296,0.148307077198622,0.025537831923087367
6.3,0.18785765909661944,0.18777570286631548
6.304,0.44315795744425146,0.46972332086544205
6.308,0.33898448856958463,0.3289397644801815
6.312,0.14556291448681802,0.1386800867661397
6.316,0.04361780483459257,0.03093886989880518
6.32,0.3240213654800461,0.21245362777287258
6.324,0.49940034227715957,0.37626678267819375
6.328,0.41219452896161274,0.29970119266593614
6.332,0.13796350684790226,0.10183801618598069
6.336,0.13040345246101753,0.0272264556833128
6.34,0.3228817103537523,0.2239950087869278
6.344,0.4426451614442626,0.4502828568483608
6.348,0.352611893521951,0.31283991206080436
6.352,0.2015150196988902,0.1312877780559117
6.356,0.1307436677798642,0.007754605399626802
6.36,0.26302940209884196,0.23350301500344622
6.364,0.4889387660443147,0.35570471645454066
6.368,0.3736327997540338,0.357377190248833
6.372,0.14977894183226573,0.1300904612219376
6.376,0.0955335040609137,-0.017741403204887832
6.38,0.30208073943922825,0.15738915272959927
6.384,0.385870485226117,0.3494132243296394
6.388,0.4280620290169579,0.2863640982269857
6.392,0.126259310417053,0.09842683380897238
6.396,0.13458560871878608,0.05237289633570494
6.4,0.25291317212454106,0.24751493414824335
6.404,0.48758144424236083,0.40591786947919706
6.408,0.40673974385879247,0.3445804864455619
6.412,0.07562527269787069,0.07576411809179628
6.416,-0.034634310221690875,0.04088947185264723
6.42,0.2985777086078512,0.19736090550300733
6.424,0.36369565617069133,0.40793317801919815
6.428,0.3711586165978112,0.320610673158332
6.432,0.20420514545461083,0.1495173218692474
6.436,0.1172011673690713,0.096286600880626
6.44,0.31507376553878286,0.25883096890487767
6.444,0.4577668991230446,0.4431241844850183
6.448,0.42007609814368047,0.33466773927169563
6.452,0.13889812126658024,0.09383851023484702
6.456,0.07972938229237271,-0.02299217725900926
6.46,0.2210814286211208,0.14992499031980794
6.464,0.47385134076164953,0.33799433964036557
6.468,0.3824834263665841,0.28568790048986686
6.472,0.19198691829984718,0.13825747420294376
6.476,0.1896716503872213,-0.0007567714723400315
6.48,0.19597776011402274,0.24228750250218037
6.484,0.42474007447294504,0.43043878561098814
6.488,0.4149429493063755,0.31957672139991306
6.492,0.18901898782965632,0.1693894206284836
6.496,0.12937077294027532,-0.014808089529302342
6.5,0.2959862102623626,0.2088743166726031
6.5040000000000004,0.4877810387326669,0.3886552076452156
6.508,0.4454308277657392,0.2970151397626005
6.5120000000000005,0.11539101839794552,0.08413300912693264
6.516,0.03247986661843644,0.05940261377772135
6.5200000000000005,0.2607330649627464,0.2620669262260529
6.524,0.45660883006102465,0.39832013805456973
6.5280000000000005,0.36636052658029333,0.3187379781799291
6.532,0.1264803009341981,0.10714027320254846
6.5360000000000005,0.13561591984960836,0.11215403520895324
6.54,0.332092889566693,0.23639850905254103
6.5440000000000005,0.4793952458972485,0.41523681927795364
6.548,0.24673107913735703,0.32229450290795264
6.5520000000000005,0.07103778500596086,0.03359068444252686
6.556,0.059792946410744716,-0.005531779264136817
6.5600000000000005,0.2301348517905175,0.2668821201948626
6.564,0.48021058848398207,0.3591210784631954
6.5680000000000005,0.328771456509431,0.2545938865442656
6.572,0.1531181841158793,0.10513137857808033
6.5760000000000005,0.04848124445649229,0.05229188908874969
6.58,0.2968988940704532,0.1810114295538929
6.5840000000000005,0.4893396474500509,0.41686862925714585
6.588,0.3509525078358485,0.3420453957663664
6.5920000000000005,0.1120346037939786,0.1489454934061653
6.596,0.19077121945185954,0.06500145404246382
6.6000000000000005,0.26531530362075884,0.2325526828181547
6.604,0.39801577006376526,0.41216883979250124
6.6080000000000005,0.3698957687973592,0.41592693235909545
6.612,0.1894701647657939,0.09209947367089115
6.6160000000000005,0.09620307171246756,0.07928169442560506
6.62,0.3235967382881042,0.14005621936882814
6.6240000000000006,0.4583381438647887,0.35792658392219023
6.628,0.3425880489486459,0.32362020955115844
6.632000000000001,0.20799308229354246,0.1425809534962768
6.636,0.06588153456546728,0.009108892083249342
6.640000000000001,0.20207326460676872,0.19996637371101628
6.644,0.48191163250640545,0.451463083807495
6.648000000000001,0.3279691261547758,0.3029175738368731
6.652,0.05600550296663499,0.06696803054448938
6.656000000000001,0.10322530401103261,0.012974027456279447
6.66,0.30080312224829386,0.1845227698408606
6.664,0.3855581443983376,0.36179224890346845
6.668,0.1657636710177563,0.14329695331448758
6.672,-0.1248292515756976,-0.10515527720436046
6.676,-0.12547564464016847,-0.20197592159141003
6.68,0.0386667683017923,0.03289368860119544
6.684,0.27638578222825866,0.24941169321331536
6.688,0.2867990570296317,0.2816638199654386
6.692,0.20746243859490693,0.10464380436783184
6.696,0.12587240971661823,0.18440576458817937
6.7,0.4594162092988169,0.36790023699719965
6.704,0.6562030441921762,0.6162326704718618
6.708,0.6225879031893679,0.5136805406459423
6.712,0.36222016077803265,0.27463322379142463
6.716,0.11767986891702566,0.11304370256448977
6.72,0.3586705317046064,0.25611354040752643
6.724,0.44369069533976374,0.3020931176712302
6.728,0.20055047862206835,0.17033200341545796
6.732,-0.13267164374611598,-0.08803471174898192
6.736,-0.16354669514372705,-0.1403759787609944
6.74,-0.06808546920358638,0.06634753327645791
6.744,0.18466240803165468,0.151130557344484
6.748,0.2409649349024376,0.22654018908708148
6.752,0.04170124159153396,0.038181619997837084
6.756,0.14709596799694358,0.04633364958270124
6.76,0.3213711929397802,0.12427623443199648
6.764,0.43986435573310045,0.3410016628637671
6.768,0.29011861482355045,0.3168838406691165
6.772,0.06291622115234874,0.09458473914041042
6.776,0.08646026803409487,0.030429055728693866
6.78,0.2102185542859839,0.156911410697377
6.784,0.46069969142224737,0.37132612482422317
6.788,0.49819716748159704,0.30320066659450706
6.792,0.23344606987105024,0.056544252532556266
6.796,-0.0036019465898550623,-0.04162070566056973
6.8,0.3698116067749328,0.19997632989004627
6.804,0.40849455436414894,0.3714577469584573
6.808,0.3612302373903155,0.2537634269199706
6.812,0.16661720660554746,0.040697611530500014
6.816,0.00988739753895565,0.042534554742896795
6.82,0.24668093685598674,0.26222633491815805
6.824,0.3863570737668911,0.41189469480444174
6.828,-0.15417358636485762,-0.12559871924638902
6.832,-1.1442802490108452,-0.9290830700375706
6.836,-1.375934268482458,-1.1524125146867878
6.84,-1.1188697491517452,-0.7529339983849864
6.844,-0.2437593356214435,-0.0853384150203447
6.848,0.6221486363706086,0.5151743306091237
6.852,1.3037992174195296,0.960164559422409
6.856,1.5413141021043835,1.2313197859270006
6.86,1.527796335184545,1.2861784180179274
6.864,1.311779738616196,1.0445616676561584
6.868,0.2875260158656507,0.19545633494302
6.872,-0.7910322225743551,-0.6180816025786757
6.876,-1.399381312398706,-1.091809011402347
6.88,-1.1541609783278701,-0.947809105062916
6.884,-0.653083858833994,-0.3879051414508927
6.888,0.3649168938753967,0.20861496768348903
6.892,0.21933924401132,0.11682713998622941
6.896,-0.014068050872215104,0.04000781055266093
6.9,0.3145219772895119,0.23570345980557572
6.904,0.563464132412141,0.35021229212449984
6.908,0.30820236082983976,0.3381872149159757
6.912,0.18885002965355427,0.1960627769949434
6.916,0.01431644282884352,-0.013046229602372957
6.92,0.16111175814347872,0.20518422687394533
6.924,0.4478974310939275,0.3142308967809521
6.928,0.3227063151408068,0.20487864087623162
6.932,0.16647627456438702,0.0968442383029193
6.936,0.1262958708923035,-0.021162384780085072
6.94,0.11373066003183965,0.1984802429448564
6.944,0.4619647644549862,0.4224358680043741
6.948,0.40968937082479373,0.3026939637063698
6.952,0.09222886438592684,0.13384201464398016
6.956,0.036847761593003306,0.07668284158082767
6.96,0.3002140886493684,0.21510422655027062
6.964,0.31158518564821946,0.332125709168702
6.968,0.18370683037022334,0.22193111363277387
6.972,0.015399556505214004,-0.04431217777837951
6.976,-0.10099836925328165,-0.19730499354916442
6.98,0.010624202489654615,0.02310278863316667
6.984,0.10765052725189045,0.14467816194384348
6.988,-0.030931193978550993,0.03102724128779044
6.992,-0.2095736586990007,-0.21418513685058127
6.996,-0.3037858773800885,-0.3023762822574926
7.0,-0.039484494922941205,-0.18663878553566743
7.0040000000000004,0.11521311345169744,0.08125290539246538
7.008,0.1108574193028133,0.0652160154061928
7.0120000000000005,-0.07612072288156542,-0.05353521525706829
7.016,0.01622080902564385,-0.11046340602052283
7.0200000000000005,0.20045026678308403,0.10164575966515059
7.024,0.40191409562167163,0.3822956097561646
7.0280000000000005,0.4213972814325897,0.359719207986017
7.032,0.2303350903276538,0.15857078112613515
7.0360000000000005,0.21133757084340443,0.22506000687729777
7.04,0.49137739236010186,0.4143487756970661
7.0440000000000005,0.761032116512807,0.5532049613691945
7.048,0.6257796920673562,0.5118617821423236
7.0520000000000005,0.441412469487634,0.35259993242586846
7.056,0.33131609194237854,0.3530012435601241
7.0600000000000005,0.5755703356367705,0.5127024068634917
7.064,0.7482298710936839,0.599565102216016
7.0680000000000005,0.5745934319710602,0.5149061501134418
7.072,0.4322528044278309,0.27006044253801553
7.0760000000000005,0.24490896413721247,0.27177794118425885
7.08,0.37836052805057957,0.392584918086375
7.0840000000000005,0.52927347095063,0.4190928926591182
7.088,0.2724801271098771,0.3385005200003092
7.0920000000000005,0.016796157164431433,0.03802478309549126
7.096,-0.16081444929580152,-0.1238825680372349
7.1000000000000005,0.05863573327379711,-0.009904360246122575
7.104,0.15994770543885442,0.21714360071622296
7.1080000000000005,-0.028438298990445907,0.06913993739325602
7.112,-0.23398143563766122,-0.22716757474649807
7.1160000000000005,-0.25746898464815127,-0.2509094308476753
7.12,-0.11496720614682135,-0.1067359937331953
7.1240000000000006,0.07511903908814421,0.03188073769487511
7.128,0.004404787049421998,-0.06428815783825448
7.132000000000001,-0.18048758534553822,-0.10386398891544797
7.136,-0.10298215053909311,-0.21494176821846825
7.140000000000001,0.0892183509558642,-0.0027566959796447195
7.144,0.24431586872816785,0.18030210529112772
7.148000000000001,0.258810791890105,0.19067558101264678
7.152,0.2318136300128073,0.038685401431624196
7.156000000000001,0.07331714245436052,0.0875425672854542
7.16,0.23381824830006231,0.18407458150225492
7.164000000000001,0.3992060138579061,0.4218535363631344
7.168,0.3821711875585642,0.27842426563083006
7.172,0.1008983713670583,0.06928115620410291
7.176,0.05157654839841676,0.027109792791836694
7.18,0.1678345579210362,0.1734465806956742
7.184,0.5311195584561593,0.45828972371364773
7.188,0.3698374267902876,0.27431716396084166
7.192,0.1015783612727786,0.13636772029423086
7.196,0.053437536853364914,0.034621371351916286
7.2,0.2164927750653594,0.13348339875314602
7.204,0.42278069144422553,0.3974558573153714
7.208,0.30981612773209116,0.22324510861939506
7.212,0.10714638925116891,0.047989942121075546
7.216,0.06932822955268689,0.02841447310239229
7.22,0.2165185567115214,0.15725492908201194
7.224,0.41208636923478414,0.35495959634820584
7.228,0.31329151219848933,0.18187963199666918
7.232,0.05554289987109061,0.08118145742007846
7.236,0.18049224570260544,0.05448437148436121
7.24,0.21404786115692614,0.2013350120228576
7.244,0.41895964938731395,0.2842005009718789
7.248,0.31842967928897775,0.24711558184743457
7.252,0.16109482463072994,0.10431137121094464
7.256,0.02016052868746449,-0.03788553416171324
7.26,0.29378690494268944,0.11281429643445413
7.264,0.39015432250368753,0.3378761395102363
7.268,0.4032295943230737,0.27360052594312567
7.272,0.15073905849226193,0.11797655159414747
7.276,0.014155121378685187,0.04832460969209813
7.28,0.2968392166894652,0.18822332345726356
7.284,0.4048465731466253,0.33872714721752006
7.288,0.3330159959841407,0.24913145576209497
7.292,0.16664559123549175,0.03570113137346244
7.296,0.05621434694793272,-0.04040255060756185
7.3,0.24660540274804016,0.18596088968285746
7.304,0.42170164462465937,0.31969325793192377
7.308,0.29930987408625825,0.3128901637660786
7.312,0.07464167951503517,0.06737952514802725
7.316,-0.02249386464328705,-0.024306965834838573
7.32,0.11852936949369458,0.16136546274044444
7.324,0.3477914409006083,0.3666251357005053
7.328,0.32256578779226397,0.2192977946844022
7.332,0.1791583192808033,0.025701333950657636
7.336,-0.029305145696745187,0.05363943488491394
7.34,0.3217450752881495,0.15942949250718863
7.344,0.36250230249820464,0.43963547739746395
7.348,0.3333389175388732,0.2765511671761515
7.352,0.011746342620569755,0.10206885379240152
7.356,0.0004335273123570946,-0.011513696073457813
7.36,0.30031844103891947,0.19527933949046872
7.364,0.4019510227392801,0.3244926217687386
7.368,0.3637282226559331,0.29013805460693043
7.372,0.10633032797699524,0.032493998198705354
7.376,0.016902032659119576,-0.04442413917131108
7.38,0.2774248471598294,0.1893739873069523
7.384,0.37604009877985417,0.3376115462962121
7.388,0.4173379986136294,0.31359048283697655
7.392,0.12440500283044227,0.054375330570375316
7.396,-0.003318097377909439,-0.007264676930442417
7.4,0.2511737773663711,0.13673270267609383
7.404,0.35749430894932394,0.3960567654916267
7.408,0.2794964436130926,0.27545280835905384
7.412,0.16372595787950062,0.07932058353687413
7.416,0.08476999447240041,-0.04367968234897995
7.42,0.22897606480651045,0.21460590330454452
7.424,0.35204305217902976,0.3381070721095675
7.428,0.3705937924968112,0.29343567545245164
7.432,0.057610609159284794,-0.006361732624769162
7.436,-0.023580998131040226,-0.0008634077173187717
7.44,0.2209368946676153,0.16630025649455113
7.444,0.5006751017897256,0.35465885143996223
7.448,0.3006205044258467,0.26393174283862475
7.452,0.12896753371525407,0.05822824879253973
7.456,-0.0012264125492021348,-0.057605742522784935
7.46,0.23133318531330974,0.21326448354727684
7.464,0.43255958918518944,0.31482267314090895
7.468,0.2582203535678701,0.3050542666858833
7.472,0.22552749964368685,0.05329688477351843
7.476,-0.014724972736810407,0.08789524653024854
7.48,0.23406485277721883,0.16109250065093672
7.484,0.4746585914345071,0.36033114733827115
7.488,0.30096169067886114,0.3136653531809933
7.492,0.03403125184969377,0.03822745300581738
7.496,0.0018906988591195911,0.016132751157542317
7.5,0.3316635949203808,0.2063922947544149
7.5040000000000004,0.3793023209090708,0.4011146829467068
7.508,0.3785315544990351,0.3190894578001159
7.5120000000000005,0.03547864500604267,0.12121730596401978
7.516,0.04605494445942726,0.10907947796374898
7.5200000000000005,0.18135731592029392,0.21257038573675857
7.524,0.23278555787387833,0.19357801349611609
7.5280000000000005,0.014113268542809684,0.08223321807126818
7.532,-0.12352740823604538,-0.1557160693569744
7.5360000000000005,-0.24836221637782305,-0.14256209027984965
7.54,-0.0026599718156865883,0.035556993604561396
7.5440000000000005,0.31214653137801945,0.20262546710673732
7.548,0.3007470540509118,0.22249118449746708
7.5520000000000005,0.1388917772170761,0.09170129719657802
7.556,0.22347018647474554,0.13056022540838458
7.5600000000000005,0.3298973286988719,0.4278863603507551
7.564,0.6428241603654552,0.5167717855071435
7.5680000000000005,0.5218793871935808,0.4954889988643709
7.572,0.3078866675341918,0.182201450391625
7.5760000000000005,0.12891008200415666,0.09286099067325623
7.58,0.25044317357096235,0.17489558736818878
7.5840000000000005,0.2728595814048207,0.21734653814733293
7.588,0.14033005420872863,0.1566927836501773
7.5920000000000005,-0.12453645216238844,-0.1152263071517153
7.596,-0.23681076193449,-0.1887341006068748
7.6000000000000005,-0.07482090053261398,0.022050549578807716
7.604,0.23144379824729788,0.21135917208311475
7.6080000000000005,0.25297168771280537,0.15764120443682245
7.612,0.14260107601831407,0.06851754316868432
7.6160000000000005,0.031105687956199966,-0.07014711850902047
7.62,0.3321316364365978,0.16195318205622905
7.6240000000000006,0.3671185582655342,0.3289042457337869
7.628,0.2913572014740343,0.21267322041465453
7.632000000000001,0.07021993089543818,0.035371863401167006
7.636,0.017370839528217306,0.058787667405670804
7.640000000000001,0.16959843521007445,0.1509339233385789
7.644,0.4245883501191621,0.32897395305064
7.648000000000001,0.3760289768353124,0.2680225521071754
7.652,0.09762237793267454,0.12526986611996527
7.656000000000001,-0.051119761303790784,-0.04329037972442481
7.66,0.23371792499665947,0.16159076983223247
7.664000000000001,0.4405474785269319,0.3716479498765947
7.668,0.3328056468085835,0.2765907793270197
7.672000000000001,0.16285376133966412,0.08546935015716196
7.676,0.050757190510794546,-0.05852416887541777
7.68,0.24055248640761104,0.16371885499350983
7.684,0.4506752496258386,0.38432331418064225
7.688,-0.7425082490764094,-0.5442290713082536
7.692,-1.319879715847179,-1.1145763010560057
7.696,-1.362830789367298,-1.0640967229745746
7.7,-0.6110899553180629,-0.5013308968283858
7.704,0.40133404623479496,0.2999760649532237
7.708,1.2470241679800758,0.9869405831680033
7.712,1.5135338291581335,1.1164269329243195
7.716,1.4350336774516168,1.0887140602455156
7.72,1.0985632508065144,0.9812632541165228
7.724,0.5575630024549536,0.4634534095594447
7.728,-0.4506307813596858,-0.3435920736909476
7.732,-1.3722345984457536,-0.9404397567602517
7.736,-1.4695548392897702,-1.1500753525267722
7.74,-0.9117628179695909,-0.8012958602314386
7.744,0.03507842383731339,-0.01828445757578922
7.748,0.27732912809603705,0.18940410580141875
7.752,0.093557384481441,0.047346839976892416
7.756,-0.017649824009898844,-0.09532058106672918
7.76,0.18198049156829965,0.10167710950053162
7.764,0.33356899468783624,0.27471624454964994
7.768,0.31862718208444774,0.28394285942816383
7.772,-0.019395174097081747,0.06000441070295368
7.776,-0.014022912504194622,-0.07164142542209188
7.78,0.3434741305848259,0.23139294020667714
7.784,0.31600666994711823,0.290694478108266
7.788,0.2971020539805804,0.35138802597184676
7.792,0.10147680037840305,0.05128609976630626
7.796,-0.0035814799076442526,0.0463860205236923
7.8,0.2280419006190011,0.09401028460983406
7.804,0.33416678150064594,0.27588709813915363
7.808,0.2634423202268041,0.28316312637250834
7.812,0.06544429648068546,0.09198503439903158
7.816,0.15468482915122794,-0.04838319172906787
7.82,0.187194277885931,0.17862805723592484
7.824,0.30272418847735816,0.28073711521597405
7.828,0.1544653350296748,0.16846117770956104
7.832,-0.1970669750377801,-0.14734544536223207
7.836,-0.34842867213914563,-0.24597411329691304
7.84,-0.13250574486133707,-0.1549082370184987
7.844,-0.005341303198953991,0.01981129901589389
7.848,-0.07102666496660653,-0.0776464389729679
7.852,-0.3515873385150601,-0.24378383746172147
7.856,-0.25975302353486884,-0.31805884913982324
7.86,-0.18890937304378896,-0.1380334995561274
7.864,0.07595706902895916,-0.019465917144919645
7.868,0.008569651011879717,0.06907889703744582
7.872,-0.06254206113114415,-0.1368908226997207
7.876,-0.1650030538286292,-0.10757074898266028
7.88,0.10267843687468226,0.14532118762916774
7.884,0.41856327256317943,0.2831536051986682
7.888,0.41656484740185246,0.356522533887518
7.892,0.19880378371292512,0.20944758014087492
7.896,0.22716035128110262,0.17980979374437697
7.9,0.5173003110798285,0.354002491148974
7.904,0.5544228431107452,0.5553833049555814
7.908,0.5805703581140716,0.5966418099648121
7.912,0.2947002970495055,0.3017850607454703
7.916,0.3780917680730849,0.2726473427823078
7.92,0.5096573677391477,0.46678431975821083
7.924,0.7316280762888251,0.6113381273229765
7.928,0.5806729304984792,0.5397518315876082
7.932,0.2973803498039255,0.204980184721979
7.936,0.09881633617342556,0.04357495511574132
7.94,0.20054787845552566,0.23079867416795052
7.944,0.32724573425425874,0.3983658813472693
7.948,0.2851514508787925,0.19379320537548406
7.952,-0.08105994689596974,-0.0792925854865638
7.956,-0.18459302243956155,-0.21167367551303687
7.96,0.015799885315983628,-0.05138434899933692
7.964,0.1481322045530789,0.01965378886603574
7.968,-0.04922345174455103,0.043108681657362286
7.972,-0.26666454890739455,-0.20291534785042079
7.976,-0.4138768819148391,-0.3208130523246811
7.98,-0.1079772783074539,-0.1530745749253546
7.984,0.1493774805638747,0.03289168162684536
7.988,0.017463629494178297,0.024895395969752952
7.992,-0.20611128315720784,-0.13979223770551136
7.996,-0.2503246883062697,-0.13837689977564635
8.0,0.03069046512629015,0.04789520559182611
8.004,0.27375857723148234,0.23944282356882338
8.008000000000001,0.28570116410829993,0.17229238177355874
8.012,0.11562864371577303,0.05098426892499691
8.016,0.06891398773288068,-0.021755237877364775
8.02,0.10981906783306203,0.18922339918002945
8.024000000000001,0.31661539254184135,0.2537748537269461
8.028,0.29621581745423814,0.22365265494205916
8.032,0.0039036986503918,0.062022893910806495
8.036,-0.035344934983247,-0.08616620544481124
8.040000000000001,0.2012322103269932,0.17077331351870353
8.044,0.22967642973976746,0.29519786989007624
8.048,0.30150349894325246,0.2529655012664483
8.052,-0.002058410664496968,0.04914724925918105
8.056000000000001,0.04665905499872808,-0.02182211706255414
8.06,0.15761330683483432,0.12374286328222318
8.064,0.3339363798612592,0.2621230483160576
8.068,0.29636450858581675,0.20086093698575913
8.072000000000001,0.07983112722202024,0.007266398432414417
8.076,-0.03544647947411725,-0.03414208698155127
8.08,0.12281248527782215,0.15024071199608158
8.084,0.327662387683206,0.313258578487903
8.088000000000001,0.23343450664709092,0.25138089614488257
8.092,0.10544567365317495,0.08839421325933314
8.096,-0.04014551417779354,-0.015099297377127136
8.1,0.1689195296501273,0.2005891893545857
8.104000000000001,0.3501402698850601,0.2933208428764325
8.108,0.2474243841028135,0.21607197624402164
8.112,0.07129981733446797,0.027164833781237015
8.116,-0.03426999955512252,-0.06534715788669812
8.120000000000001,0.16401329739656173,0.18032094233083126
8.124,0.3466686104739262,0.275044638503648
8.128,0.2740668513168843,0.28696386349038167
8.132,0.036403586112718676,0.10265566488942775
8.136000000000001,0.01555453151962357,-0.05342819977455374
8.14,0.1928333664369839,0.1024447500346298
8.144,0.37471620240926884,0.3368007220242529
8.148,0.2676984399365047,0.29931090830719526
8.152000000000001,0.07779664229953334,0.021691045408363443
8.156,-0.0030663408524282017,-0.027139977840720107
8.16,0.19466932165356673,0.09868184531755914
8.164,0.32559050855358923,0.3354801509498201
8.168000000000001,0.263545126792563,0.2622212505488353
8.172,0.03326704898550764,-0.03537054268693232
8.176,0.006162917411447338,-0.06625356367192592
8.18,0.14371456312779599,0.13491532984686708
8.184000000000001,0.2799067566064583,0.31020739841149375
8.188,0.3366898398167362,0.23189813834439935
8.192,0.0425845364738781,0.038672430856617174
8.196,-0.04585765090214196,0.016800902989501827
8.2,0.16077030522642408,0.15260104583341508
8.204,0.3155173298770213,0.23631775817106423
8.208,0.33961207204841876,0.26180693859643195
8.212,-0.026918722669171544,0.06503929716548106
8.216,0.02680615334758015,-0.08879887755076532
8.22,0.22824049380820036,0.12060947863076389
8.224,0.27050627500148267,0.30153495843074807
8.228,0.25239710076334243,0.2733844622310383
8.232,0.027588119851854442,-0.001498843671361095
8.236,-0.06552182675903641,-0.06010796443066298
8.24,0.14179500033962886,0.13828109628542828
8.244,0.32695545223309563,0.2693353068139
8.248,0.30806770226730323,0.3124146531791383
8.252,-0.03585726712919028,0.02119884404526239
8.256,-0.03353928776559097,-0.05109687798591962
8.26,0.0957997182924361,0.15635137304868235
8.264,0.34041371719648694,0.2516762150693525
8.268,0.27668030845443853,0.21181141336590592
8.272,0.028163329672459707,0.03567842123044104
8.276,-0.0397779263554761,-0.026134744506393522
8.28,0.11459064270795558,0.1745131560701094
8.284,0.3592905158390708,0.29003197569817213
8.288,0.253201640696734,0.2642923544092446
8.292,0.06042126350587121,0.03881958958966534
8.296,-0.03046580254030478,-0.019871578238585763
8.3,0.05178426510206441,0.13757894726548694
8.304,0.27878955322438925,0.17495325955145924
8.308,0.21266688804753686,0.2412606453658067
8.312,0.0038333770810129557,0.010506679203053948
8.316,-0.04899954372294099,-0.08824577828179248
8.32,0.1595965680448338,0.14023438019456402
8.324,0.384152307139212,0.2456160553211691
8.328,0.2216857666920982,0.17571108008574235
8.332,0.05727042010546151,-0.030091661480567584
8.336,-0.03397745333877504,-0.0517805616178612
8.34,0.0972731321723038,0.08490664783577795
8.344,0.42953308367816434,0.15144882638994892
8.348,0.3039023336304888,0.27792222955959667
8.352,0.03587164810042307,0.01710261366436637
8.356,-0.08116747143609082,-0.0661107915841619
8.36,0.1821831238308754,0.2267552742288022
8.364,0.3903196961452127,0.315197550843052
8.368,0.26108252085953143,0.17292845235346194
8.372,0.056949507179863704,0.07524869193791749
8.376,-0.03219365111017026,-0.08105011710683518
8.38,-0.0014280599136595531,0.085736660067257
8.384,0.10350752318505882,0.07927165667411519
8.388,0.1370242087357694,0.0648586118601863
8.392,-0.1895840480442453,-0.1589905421443777
8.396,-0.21908974469580692,-0.21004787714571863
8.4,0.0021643366432448153,-0.051314164192930646
8.404,0.2989635067114158,0.28847734441043504
8.408,0.3520930942578043,0.26966126997159456
8.412,0.11805212669634144,0.047174147705643404
8.416,0.14473432344046253,0.1479110731453671
8.42,0.30147744542380533,0.2979940045501305
8.424,0.6690978901970972,0.42385538408856466
8.428,0.4901953475664376,0.3470317869578238
8.432,0.10328691283538023,0.14334099355953947
8.436,0.0030532930464293485,-0.11318704678408896
8.44,0.09089533399647076,0.09323464873989505
8.444,0.08208272065536021,0.14900393388519811
8.448,0.10731827953415535,0.04123997335265352
8.452,-0.21572690602074163,-0.21806146769423013
8.456,-0.27006206907770675,-0.19564396767133976
8.46,-0.0688259665495828,-0.11067129064922733
8.464,0.20792789928402156,0.19560623948953942
8.468,0.24966351510540935,0.2129247230421945
8.472,-0.008498069198423257,0.02384896543703509
8.476,-0.06413611281407533,0.03322812609026321
8.48,0.03148092987353544,0.017591770278148816
8.484,0.3575003280448625,0.316565377017063
8.488,0.2591217423751291,0.22941802568762495
8.492,0.057355411313593264,0.006907740556522567
8.496,-0.03510587221775829,-0.013679029567038405
8.5,0.2407061950105036,0.10775991382752165
8.504,0.3802424047981962,0.32259423079183736
8.508000000000001,0.28649686615585934,0.30169271594253333
8.512,0.07557371401353487,-0.03609764121351722
8.516,-0.10559915401563413,-0.09003431628190972
8.52,0.17092713352108413,0.09432901406253925
8.524000000000001,0.37868743183508624,0.3145125515315205
8.528,0.14138903284801624,0.18150146673514161
8.532,-0.0035768789215327446,-0.07003667731982609
8.536,-0.13585841349652278,-0.005135344529591225
8.540000000000001,0.08422209174670259,0.159614103494722
8.544,-0.5291873404104868,-0.44080159944188607
8.548,-1.290430510426773,-0.915498321181598
8.552,-1.4651376883032594,-1.2125599906547513
8.556000000000001,-1.1030049862292568,-0.9312066342558213
8.56,-0.02622047481703245,-0.01059228539004644
8.564,0.9317644525892914,0.8615387938905621
8.568,1.5320127191335224,1.2115642699531746
8.572000000000001,1.569253407815921,1.0848407597432357
8.576,1.0630440419958118,0.8726923047569007
8.58,0.6674379471600407,0.4335806490488127
8.584,-0.25312358608298025,-0.05441126104698503
8.588000000000001,-0.8364354812834874,-0.7093303273973081
8.592,-1.476659759871748,-1.1953497212683162
8.596,-1.394068578289336,-1.1296726408593443
8.6,-0.42310749127031755,-0.342671241471746
8.604000000000001,0.24396784400275462,0.2637474704622038
8.608,0.27579552535530255,0.24701354691675353
8.612,-0.014689490066299715,-0.004440811265456568
8.616,-0.0681842309589804,0.0271916718030646
8.620000000000001,0.14918933851230792,0.10846207934220245
8.624,0.3561560559637605,0.28411275506385775
8.628,0.2842156093172956,0.24586846789249453
8.632,0.042894282773873034,0.06735614978023445
8.636000000000001,-0.08792906499230978,-0.014873836442879186
8.64,0.23182018171201707,0.06311055728447931
8.644,0.2644348916965864,0.25836691501425163
8.648,0.23116595059006953,0.18209202105970215
8.652000000000001,0.08410701997560975,0.058018038488083734
8.656,-0.08384662482136984,-0.09613455700454557
8.66,0.10654706595478763,0.13016784063366482
8.664,0.2496656481451346,0.28430888351936007
8.668000000000001,0.23499744798429142,0.23887911517910182
8.672,0.16146596749222164,0.13971985943572346
8.676,-0.08096639153201834,-0.021995891743096588
8.68,0.04776125068150294,0.10469099689512157
8.684000000000001,0.1368273511979549,0.12846716476359962
8.688,0.0677557495931042,0.08196895311547898
8.692,-0.18674585032927485,-0.2418947774874639
8.696,-0.2980869975377237,-0.3492004425849472
8.700000000000001,-0.27665843830050346,-0.2501809798673341
8.704,-0.1041623633422812,-0.020636260914930555
8.708,-0.049813049391289554,-0.09678966490529371
8.712,-0.26512145425738515,-0.3614860017320196
8.716,-0.4023741006395513,-0.312071248986304
8.72,-0.13759195766949095,-0.17778700618234083
8.724,0.037549556324749114,0.08504344246180945
8.728,0.05803747948216533,0.028408368075475712
8.732,-0.14962467348551098,-0.15471776253323005
8.736,-0.1718894335516417,-0.06931431067061099
8.74,0.1477359744784881,0.06169678723639237
8.744,0.36000861231235365,0.3620295876829723
8.748,0.41071657633805103,0.2965738350276148
8.752,0.17479048261926827,0.15184304298187012
8.756,0.08642840942051914,0.10156673145631798
8.76,0.3355288957980622,0.37291788210252796
8.764,0.6448794782108411,0.5152263738922275
8.768,0.528412429448009,0.47275667838738555
8.772,0.34227376739560667,0.23272901919530953
8.776,0.308333621511233,0.14130393857578372
8.78,0.46002986250377764,0.3167127288008251
8.784,0.5634017500387373,0.5029470726337474
8.788,0.41648754523898557,0.33603899492780787
8.792,0.23199445297725038,0.11239914221227512
8.796,0.09401899635548852,0.010725880511265405
8.8,0.18203720373527832,0.09770674282548625
8.804,0.31768260317572783,0.1968865894753249
8.808,0.06435742619343476,0.09669009202463269
8.812,-0.1103156988215197,-0.15484866032056738
8.816,-0.26286542902253157,-0.31354588189881044
8.82,-0.22126379221542058,-0.17056343946186073
8.824,0.01455200794150703,-0.04859795573094256
8.828,-0.12427698482487312,-0.0857153796094928
8.832,-0.3070158295393048,-0.305483835101794
8.836,-0.4860157917514827,-0.4529826334339773
8.84,-0.15190793110447237,-0.23160345281451852
8.844,-0.04378231498586895,0.05690575233171995
8.848,-0.12002635219266669,-0.02080693466504085
8.852,-0.15741077196622624,-0.1916014231784953
8.856,-0.2443453689669536,-0.2788870571477319
8.86,-0.0619478399533844,-0.0046894492012249074
8.864,0.2827791603352082,0.26436225784332734
8.868,0.23844879440417147,0.16145971548445692
8.872,-0.012500262969722342,-0.05792623325635504
8.876,-0.13902809082027456,-0.0595378775786229
8.88,0.07355658468680873,0.13405108779063596
8.884,0.28260700373310393,0.2631793121926347
8.888,0.17638981171251122,0.18399351551763513
8.892,-0.03521277663942955,-0.024964533047522115
8.896,-0.1281281910706617,-0.13171653371998424
8.9,0.08769992814857067,0.08196779816886252
8.904,0.3288985737199783,0.28314047761521716
8.908,0.1985453092469694,0.22635082931587952
8.912,-0.07333967206023118,0.0025170907975461815
8.916,-0.1324528233288233,-0.09383719567230635
8.92,0.05001687960493532,0.07331496620122417
8.924,0.29429339908449453,0.25117966222413807
8.928,0.286186555406529,0.1414630864207159
8.932,-0.012715805027297663,-0.02840668356635622
8.936,-0.17070233803844675,-0.06353640620946538
8.94,0.08596590158651593,0.11847024496132945
8.944,0.25708909657327167,0.27031396206438707
8.948,0.19210672763985429,0.19916493211188582
8.952,0.0027763007602996,0.02178001551405362
8.956,-0.16011095543156068,-0.14118923045232293
8.96,0.047651132600477326,0.15009931156040712
8.964,0.4046616747446458,0.26877690881093635
8.968,0.22260937494711225,0.16884016705560234
8.972,-0.015450372198033557,0.0005197474126577596
8.976,-0.12274299663953299,-0.0685522006845038
8.98,0.1127991388040353,0.04057020695013095
8.984,0.34687981973378557,0.24845505600269335
8.988,0.24154096135344164,0.12849263011248457
8.992,-0.1056482966108644,-0.032617142420243585
8.996,-0.12166549990238786,-0.13536956988045595
9.0,0.11517609127593899,0.11722836041362766
9.004,0.2726101812864983,0.27235676205217235
9.008000000000001,0.2777622759670091,0.10610088102241562
9.012,-0.03933803259532532,0.00816570920989447
9.016,-0.05469110056908423,-0.174358232127297
9.02,0.03216312317511321,0.13254511699155025
9.024000000000001,0.3209907415737703,0.1933901598135444
9.028,0.2284384665832677,0.1701816778336874
9.032,-0.09480159409526119,-0.04052330629835049
9.036,0.010600039385526519,-0.1463865852605473
9.040000000000001,0.07195773591164943,0.07292952950240393
9.044,0.22482001640629104,0.26875068306338573
9.048,0.18255512488394332,0.17792662064061188
9.052,0.016093847633886126,-0.021434090859967045
9.056000000000001,-0.19200589861288964,-0.08028363340131596
9.06,0.11501900073197203,0.0672476781280389
9.064,0.3575335926420792,0.1865720536452996
9.068,0.08929443204881674,0.2310304494222223
9.072000000000001,-0.027764449788158008,-0.010245861289642316
9.076,-0.1176859693199104,-0.113407256404015
9.08,0.09683315337324802,0.08505086937646182
9.084,0.30787516476301235,0.2231772045829021
9.088000000000001,0.2177729088110184,0.22775465592475863
9.092,0.005834449297855891,-0.07534912353590004
9.096,-0.15132259074334098,-0.011302001063581271
9.1,0.14614900786672197,0.01698994067769405
9.104000000000001,0.37953246849981054,0.25190696480279284
9.108,0.2138961898801976,0.1761719671304961
9.112,-0.014072510427773119,-0.020837295655336763
9.116,-0.04238219407296187,-0.13165894486225058
9.120000000000001,0.08039331588466202,0.030765811546862573
9.124,0.3057990146767564,0.28220603924778004
9.128,0.1620245093286186,0.05990387008891604
9.132,0.03660695749728979,-0.05672795376285868
9.136000000000001,-0.048242222210655224,-0.06279117882158441
9.14,0.18938805025299732,0.08627418716429491
9.144,0.27098356422728914,0.24041043912824886
9.148,0.17487415281885815,0.1915061704378377
9.152000000000001,-0.05300755880412526,-0.0019790399875626655
9.156,-0.10057835430033787,-0.0626162802632195
9.16,0.11716394983798713,0.048404265661672614
9.164,0.22271762767372671,0.21498789397274873
9.168000000000001,0.17707044799910374,0.13253822924021394
9.172,0.028625674427178616,-0.06985632002910624
9.176,-0.15284910316344041,-0.1074423350343806
9.18,0.08836142737333628,0.0584972546364027
9.184000000000001,0.27687290562713823,0.23650684145605175
9.188,0.21856412775853543,0.14824813978337253
9.192,-0.07341902572515036,0.00023496554958658822
9.196,-0.11168992165275138,-0.13700379063894402
9.200000000000001,-0.042987511393077396,0.06419920610672326
9.204,0.23311906795482842,0.2317615126847676
9.208,0.31536287931342133,0.13583979022153764
9.212,-0.07656249793066924,-0.0788813167310904
9.216000000000001,-0.1277391605183536,-0.07553646792843376
9.22,0.03843500760589575,0.056855487926829394
9.224,0.3095550519575754,0.24921745072123871
9.228,0.14344564364039267,0.1713188606406347
9.232,-0.12346486558781501,-0.0753331369111022
9.236,-0.23267725368005135,-0.2946261195443199
9.24,-0.15409268605461166,-0.14433626501885966
9.244,0.011345062040919271,0.03549155634721084
9.248,0.007026980633987934,-0.01638454824198066
9.252,-0.3690014406531516,-0.3069621750932231
9.256,-0.24557570147470092,-0.19628451624907206
9.26,-0.04576262638935101,-0.00959772565780886
9.264,0.3002210978488348,0.20192673512410844
9.268,0.24456964208039841,0.29773738513094966
9.272,0.18980695644772638,0.17353889470111467
9.276,0.11510203660817113,0.06425606371328371
9.28,0.20057937960033329,0.31235427628545254
9.284,0.5076755561964856,0.45946310535927387
9.288,0.36266735322880844,0.28383878477996066
9.292,0.06985911841413982,-0.006856351097932028
9.296,-0.18628577851649222,-0.13911342212035335
9.3,-0.10373877013979699,-0.057291801970133005
9.304,0.03554875881730181,0.06916150584670203
9.308,-0.018006014333218037,-0.05197842222096666
9.312,-0.22981433010894387,-0.27030337340020855
9.316,-0.3111046689738667,-0.3024452286039391
9.32,-0.1391085921136525,-0.050411712669788805
9.324,0.23009131755576812,0.1542071462633688
9.328,0.18204439560303634,0.1837934310131444
9.332,-0.06507958540749022,-0.08398532159180827
9.336,-0.119356159853369,-0.11320079939540693
9.34,0.03147458497078813,0.04571196009271911
9.344,0.1923608047785414,0.3006120565470742
9.348,0.16943890325754662,0.22542778894294635
9.352,-0.11304530290111389,-0.047449848738500555
9.356,-0.13556089092547283,-0.12815222059992853
9.36,0.052245996726743196,0.04894262213989717
9.364,0.19187555899829073,0.2039216182207232
9.368,0.2583195126191289,0.14339197760011488
9.372,-0.10533359543187935,-0.036738691063689356
9.376,-0.10824652075271807,-0.12569784290871888
9.38,0.05480694791252973,0.07384503288053305
9.384,0.2326792750132024,0.2197221019205383
9.388,0.21272594734792727,0.12714813532511332
9.392,0.021064751920228657,-0.08178351193273839
9.396,-0.002214729304909152,-0.1418437858818085
9.4,-0.6499414214890031,-0.48410244687967596
9.404,-0.9712750332007212,-0.7864111345211561
9.408,-1.327672043092897,-1.010231377098996
9.412,-1.2519247011027286,-0.9825624247291593
9.416,-0.6266967679802485,-0.5119988772223109
9.42,0.4814590592255091,0.33520934329863644
9.424,1.2025275196846503,1.1640121955794618
9.428,1.7124276607459434,1.4009183623760908
9.432,1.2270337702157925,0.9458374353738066
9.436,0.5120518598193661,0.3648635198176372
9.44,-0.12407700061626964,-0.17174012743319056
9.444,-0.8267669873628851,-0.5732162767460441
9.448,-1.2307710389632291,-1.0060389526566815
9.452,-1.495009534571686,-1.132123953874372
9.456,-1.0932258102408863,-0.8552869870088113
9.46,0.02313217233779466,0.07105801557357029
9.464,0.2710007702754434,0.173887697807842
9.468,0.15787762406061065,0.175159221055097
9.472,-0.07680312449458639,-0.06354799470049284
9.476,-0.1260902731225855,-0.11849080316273566
9.48,0.033354345781881914,0.04961597383339024
9.484,0.32385478224471465,0.16922456551580092
9.488,0.22415977328300546,0.1068292370123623
9.492,-0.08128728682854175,-0.015210370128424078
9.496,-0.10179725511567175,-0.13627650340621217
9.5,-0.02241263879420883,0.061065405146880254
9.504,0.18379016415032248,0.1493159578569755
9.508000000000001,0.2032818618886182,0.1233887208988063
9.512,-0.1378988427719638,-0.015833869753698625
9.516,-0.16502986020083146,-0.1199958556210323
9.52,0.12299921948016718,0.022600828523807605
9.524000000000001,0.2853945801837996,0.16954104268965653
9.528,0.15264962088530254,0.16701298397879874
9.532,-0.08035170574473002,-0.09765467724356315
9.536,-0.17110160883903325,-0.19268099855327428
9.540000000000001,0.0068825698845775204,-0.018996999216519955
9.544,0.10751518126232915,0.09930471261103796
9.548,-0.07720820515902665,-0.036003530782363034
9.552,-0.33186839139048896,-0.26619361013686554
9.556000000000001,-0.42311206381905264,-0.33970785422310057
9.56,-0.41104291946106475,-0.2557946839668643
9.564,-0.1316580790604204,-0.11603650891475217
9.568,-0.17957525341027986,-0.10778943043962436
9.572000000000001,-0.4254398498990281,-0.34907878376842494
9.576,-0.495829716497467,-0.39603670846055894
9.58,-0.18369893008828225,-0.21963512003423066
9.584,-0.04001506001929749,0.1220686965101496
9.588000000000001,0.06444432552132875,0.01828164373564145
9.592,-0.16770783213490165,-0.07178608167702884
9.596,-0.21087671905242616,-0.18659766465154287
9.6,0.1910851156255402,0.036686243212752434
9.604000000000001,0.3143702743832601,0.3329896781990953
9.608,0.28356670246345883,0.26186505689459405
9.612,0.07234907030543831,0.18363393484426715
9.616,0.12462983516073085,0.17040772022257428
9.620000000000001,0.3883499379281028,0.25152948326959945
9.624,0.5601592394604524,0.5286495429642911
9.628,0.5113783358504644,0.43152427298978846
9.632,0.27195733511691755,0.23298802489519574
9.636000000000001,0.20430514860892285,0.0708974420769134
9.64,0.31484738571252824,0.26545925103194895
9.644,0.5080431507581865,0.3431438362901551
9.648,0.4351465970840699,0.2592703547784869
9.652000000000001,-0.0064373486422597825,0.04701944196379282
9.656,-0.026287939067519736,-0.10674019773168444
9.66,0.0853664867055225,0.06395814309298051
9.664,0.14040575274617662,0.1240774360998968
9.668000000000001,0.036301969673252485,0.0246824072958375
9.672,-0.2703154317123658,-0.22327069111047942
9.676,-0.4351698557495389,-0.3787593331919137
9.68,-0.26300052761833453,-0.2531365419008114
9.684000000000001,-0.07585508580384723,-0.07572526268794523
9.688,-0.18766705471659634,-0.167059796484862
9.692,-0.4537654697030626,-0.5058422100144984
9.696,-0.4668935663048459,-0.44569851287157564
9.700000000000001,-0.20688131541309612,-0.32556931684346724
9.704,-0.1715625341711786,-0.028917768924076853
9.708,-0.11382994867156897,-0.12393970669711568
9.712,-0.24255480650521904,-0.2718173668302406
9.716000000000001,-0.23025555778175547,-0.2696338518136409
9.72,-0.0023579939067121837,-0.027161520337961362
9.724,0.1766359812761359,0.2378815763607702
9.728,0.28106657305740773,0.19650054064805106
9.732,-0.15178604865872605,-0.0871633166344204
9.736,-0.10079580004346195,-0.1475031790487188
9.74,0.022935631182941632,0.05867817689849192
9.744,0.2994801945989245,0.16877411514212431
9.748,0.1388640986176259,0.1503589136961924
9.752,-0.07005381625749847,-0.10123050589954061
9.756,-0.04321844306439851,-0.14314064001121715
9.76,0.11645985479339503,0.04469060256736672
9.764,0.18887913229727304,0.19556272002782482
9.768,0.12719332755784493,0.232647323204881
9.772,-0.10446741694984346,-0.09579999752062429
9.776,-0.2375626360495624,-0.15063079688568207
9.78,0.029091668800147456,-0.030482035475246166
9.784,0.22737882845211155,0.15165587214873832
9.788,0.08750083136188014,0.11662581103867405
9.792,-0.06493175946654856,-0.07971665969716225
9.796,-0.2225049789190394,-0.11802999544128495
9.8,0.014488072517700453,-0.006473874537460376
9.804,0.17036752900543653,0.2261016939039494
9.808,0.10736887855875163,0.13590689284586965
9.812,-0.09432307055179769,-0.0598393271415829
9.816,-0.16264165096600386,-0.2087927042756921
9.82,-0.0272428918880721,0.07482141463980793
9.824,0.19676091779767665,0.2537122238637003
9.828,0.13082217460202852,0.11015142081902177
9.832,-0.04915079566196675,-0.0870673454448391
9.836,-0.22807721657877905,-0.1860353650956375
9.84,0.06986464143906743,0.01662138830393053
9.844,0.20648894518565974,0.18639899928439876
9.848,0.0358998505412569,0.10687360300078791
9.852,-0.13834816652614387,-0.0770028177399287
9.856,-0.12012457787749055,-0.19774127105484351
9.86,0.07998979417356454,0.007785645921107136
9.864,0.1844523319934153,0.1630372140899344
9.868,0.07883999405789446,0.1408710451891028
9.872,-0.041077122123159324,-0.145218133444498
9.876,-0.18887123977620732,-0.1857569974676657
9.88,0.02759799788466318,0.07830969065131702
9.884,0.18331101894296173,0.21740280896228442
9.888,0.11125757867875682,0.09593318519408665
9.892,-0.1284575784468358,-0.06366658229398113
9.896,-0.17548895281725096,-0.1247776749687447
9.9,-0.04889074751335735,0.01140250330654739
9.904,0.19202291556789455,0.1979549138968138
9.908,0.19756162306187,0.11630127771059492
9.912,-0.11253300864606584,-0.09758026744332303
9.916,-0.18129576079993814,-0.17575880870296445
9.92,-0.013838235626486867,0.047584165748028984
9.924,0.3200322500324563,0.2604222295380564
9.928,0.16942121288205636,0.16182789866639438
9.932,-0.1191154965887275,-0.12393679536444423
9.936,-0.2040391187623416,-0.1908764950843767
9.94,-0.006635400984776448,0.021428604762332167
9.944,0.18486948871759035,0.20329066563878342
9.948,0.11074791427965218,0.09376509343623612
9.952,-0.05673738471694444,-0.1381874063567857
9.956,-0.22625717402294668,-0.1676456218242815
9.96,-0.08104939679436322,-0.017435858193388894
9.964,0.14515532087322436,0.1707781716183933
9.968,0.12120914728534946,0.1127239160329178
9.972,-0.11303150541554927,-0.058232211065279
9.976,-0.2817030342049256,-0.15725436853774158
9.98,-0.1434742165426889,-0.047463411732732476
9.984,0.16363286371638275,0.1240168529351901
9.988,0.06553060229117802,0.1268682115641516
9.992,-0.08456278733571039,-0.09659821450307599
9.996,-0.21722629867378668,-0.16124720000596718
