Time,Channel_1,Channel_2
0.0,0.18868610039306333,0.16730474233860626
0.004,-0.1400825990298621,-0.1346412203901789
0.008,-0.46672781782079864,-0.4455402197570717
0.012,-0.7585943476291687,-0.7358580965055463
0.016,-0.9547180103987938,-0.9410084596050187
0.02,-1.0,-1.0
0.024,-0.883156269282965,-0.8947989427590235
0.028,-0.6503294584005086,-0.6652511610894668
0.032,-0.382843946377704,-0.39085586764599334
0.036000000000000004,-0.15301672965035296,-0.14944735602228132
0.04,0.006036130134926543,0.017177176428941454
0.044,0.09738396304851893,0.10762335165479842
0.048,0.1421853638026127,0.14467483416764604
0.052000000000000005,0.16591500465417486,0.15844405815596896
0.056,0.18892017238524006,0.17285640395958612
0.06,0.21981390773113185,0.19649030283592972
0.064,0.2555155433823775,0.22467470954091495
0.068,0.28856699194746493,0.25051922555826045
0.07200000000000001,0.3152851723710772,0.2727275999483465
0.076,0.33713511938796104,0.2938052483800042
0.08,0.3558282528086987,0.3143274670859375
0.084,0.36978972332427373,0.33166164264659725
0.088,0.376133624913483,0.3435149170061256
0.092,0.37424046493856644,0.3512486987039469
0.096,0.36606788454772854,0.35836552418583345
0.1,0.35355596027828895,0.36370267617967866
0.10400000000000001,0.33642475721165255,0.35810425496327913
0.108,0.31323960188007827,0.33207170243903805
0.112,0.28429106661453196,0.2854416724059372
0.116,0.2509203304477938,0.22680099832313116
0.12,0.21290221124770103,0.16576073594197838
0.124,0.1701720352758498,0.10876880280067702
0.128,0.12650318372264224,0.06057440936723202
0.132,0.0894684210510821,0.02570571866334337
0.136,0.06639623932063499,0.006990626090003449
0.14,0.05923927210663149,0.0032588187775934863
0.14400000000000002,0.0636936835932671,0.009755997175995068
0.148,0.07444513035746159,0.021742547532631606
0.152,0.08983716607257453,0.03768025514543405
0.156,0.11060194414243285,0.05933314731070971
0.16,0.13586564215363994,0.08889572051014438
0.164,0.16220239220432386,0.12559169136953718
0.168,0.18678886333263467,0.16578920013097176
0.17200000000000001,0.21026228986639306,0.2060397291674192
0.176,0.23550339447083957,0.24410106379301388
0.18,0.26393631110558435,0.27807445638284833
0.184,0.293775516137579,0.30696858225267265
0.188,0.3219521915020531,0.3312049298771085
0.192,0.3463709482379582,0.35133860413398166
0.196,0.36500088167560607,0.36708802799703055
0.2,0.3744926636580257,0.3774251766884378
0.20400000000000001,0.37205467134931447,0.38076539103548956
0.20800000000000002,0.35832215408508516,0.3749736482855821
0.212,0.3371607629091704,0.3572510043483055
0.216,0.3119369630901181,0.32537785368590577
0.22,0.28249769326533447,0.28029925273666834
0.224,0.2471757004561843,0.22648235324196286
0.228,0.2067832865913095,0.16997242241133614
0.232,0.16497322884375598,0.11743742567762605
0.23600000000000002,0.12617423208051592,0.07479772734031798
0.24,0.09393572779004322,0.04375036969007229
0.244,0.06924856627309794,0.0206794109575823
0.248,0.0504861052572978,0.0009615210688087572
0.252,0.03594768968225037,-0.015881784501095786
0.256,0.025664790897588663,-0.02609662126323531
0.26,0.020511488363977648,-0.026159446617762372
0.264,0.020924994652745,-0.015820284230099957
0.268,0.02778159576956818,0.0027631673275665403
0.272,0.04326153911016539,0.026983125059978352
0.276,0.06919884950712807,0.05523979337982654
0.28,0.10537908009650487,0.08717182550211167
0.28400000000000003,0.14909651090466403,0.1221308129413099
0.28800000000000003,0.19508535238128988,0.15812095379647984
0.292,0.23647225793007776,0.19213606138921158
0.296,0.26614693316538784,0.22037661695743194
0.3,0.2790244102077397,0.23908441907776434
0.304,0.2759109364284691,0.2467148491893716
0.308,0.26366222215468227,0.2447144450426353
0.312,0.2497733303936842,0.23625124329315783
0.316,0.23859890037613307,0.2250433954708828
0.32,0.2318577605761194,0.21384144162172913
0.324,0.22887230117438429,0.20316421615341818
0.328,0.22618599735060263,0.19282986224400123
0.332,0.21977913858671627,0.1840572852049116
0.336,0.20849930227146585,0.17882736104475971
0.34,0.1948833072289875,0.1781402656378983
0.34400000000000003,0.183064565754538,0.18127854678128963
0.34800000000000003,0.176203980119229,0.18634712733906578
0.352,0.1751322517931697,0.19147625007273716
0.356,0.17851097923255255,0.19471316002194206
0.36,0.18398344185631577,0.19351838105727115
0.364,0.18918573855250242,0.18688268862623314
0.368,0.19235284865003366,0.17767877896579143
0.372,0.19280194346728807,0.17083525454415116
0.376,0.1909397354649296,0.1688829810367889
0.38,0.18777756938820445,0.1700993141780267
0.384,0.18415853968022322,0.1705819002426503
0.388,0.18033138678561733,0.16698917950253578
0.392,0.17675269879290267,0.15851344817769664
0.396,0.17508002799166822,0.14772466692060382
0.4,0.1774572369330516,0.13846433426960214
0.404,0.18411519849046454,0.13328579530481854
0.40800000000000003,0.19222262133665824,0.133872495545575
0.41200000000000003,0.19847515992284093,0.1409157871765636
0.41600000000000004,0.20228738279461744,0.1518304040211207
0.42,0.20498090408190306,0.16150530525680717
0.424,0.20690444460715152,0.16663204319003722
0.428,0.20733272338410047,0.16818090491372573
0.432,0.2059952773038214,0.1693272838457307
0.436,0.20284946058950304,0.17111424507846906
0.44,0.19767385973635387,0.17111411406623844
0.444,0.1903766814207999,0.16725032428527542
0.448,0.1807389194576472,0.1612297109455847
0.452,0.16935975035303996,0.15650083718010466
0.456,0.15947884692930514,0.15471126724926365
0.46,0.1554295576479663,0.1557002656254982
0.464,0.15826233019403224,0.15905638623338736
0.468,0.16498515664453506,0.16390907009355238
0.47200000000000003,0.1729833865358883,0.16794070987443654
0.47600000000000003,0.1820839935166907,0.16890990122961713
0.48,0.19136794404156454,0.16742938574025779
0.484,0.19781119275177161,0.16626882848194313
0.488,0.19919685556654154,0.1670171750420233
0.492,0.19583074037590298,0.16915905321038882
0.496,0.1894379717701442,0.17205142984410027
0.5,0.18239200103445175,0.1750210018358862
0.504,0.177397368468325,0.17619607576046503
0.508,0.1762411216633728,0.17491631408561892
0.512,0.1786628199579139,0.17334811246590998
0.516,0.18244111429530308,0.17262581227173968
0.52,0.18473178215051322,0.16988546189977405
0.524,0.18406527373566317,0.1614893193114082
0.528,0.18197580898649957,0.14835175842377746
0.532,0.18235977054543118,0.13692319876476722
0.536,0.18768412585511318,0.13453921223632515
0.54,0.1963363619147842,0.14313807430000702
0.544,0.20449555023725163,0.1571519516517863
0.548,0.2093547420262234,0.16833106460075697
0.552,0.21039476586821482,0.17262657386188107
0.556,0.20805675953277536,0.1717311167844986
0.56,0.20197290426723535,0.1693217827445812
0.5640000000000001,0.19235390766158322,0.16726865837766924
0.5680000000000001,0.1821167906850436,0.16479002194747672
0.5720000000000001,0.1752205756726446,0.16076238992330194
0.5760000000000001,0.1736456319761721,0.15662148881904625
0.58,0.17702236933485205,0.1561054442761669
0.584,0.1835788564313201,0.16165546242265716
0.588,0.1904125333496116,0.17175467477175665
0.592,0.19459033777021628,0.18232168989421949
0.596,0.19523681876807886,0.18936524787103104
0.6,0.19415567378696186,0.19032622660298193
0.604,0.1940396324380691,0.18508533244038272
0.608,0.19603822895361822,0.1762392969648745
0.612,0.19930053458572305,0.16787065449922434
0.616,0.20210319364463958,0.16365045458367633
0.62,0.20280085659429026,0.16521178123942581
0.624,0.20104108978133373,0.17142622403600494
0.628,0.19851784435729658,0.1789733455471021
0.632,0.19770958887807932,0.1841972932824114
0.636,0.20000481431989425,0.1852784225594577
0.64,0.20457041357544492,0.18326267805703922
0.644,0.20841434370102374,0.1807047933786623
0.648,0.20792616686408905,0.17839266758797678
0.652,0.19992756576713777,0.17367144440396975
0.656,0.18202310184797854,0.1621585757106232
0.66,0.154145824544746,0.14094868087953816
0.664,0.12023727300988951,0.11119474375377725
0.668,0.08801145624163031,0.07835681839065223
0.672,0.06598287577143602,0.0504352254951248
0.676,0.05939983529027071,0.03616307144969233
0.68,0.06940940519710392,0.043257724007240705
0.684,0.09584549480014415,0.0755626228019235
0.6880000000000001,0.13854088204175885,0.12985625896874065
0.6920000000000001,0.1949815965447339,0.19564825782549544
0.6960000000000001,0.2580119672367236,0.2592525943074808
0.7000000000000001,0.316944367454596,0.3086811741613267
0.704,0.360272475201888,0.3361087641050622
0.708,0.3779032766409267,0.33808995382064966
0.712,0.36460047714224797,0.31455383588252706
0.716,0.32269334495783175,0.2685441433961351
0.72,0.2607365075622683,0.20772134470480497
0.724,0.1909826188984225,0.14383077452954707
0.728,0.12680050405847187,0.08888649556507433
0.732,0.07927701923642028,0.05171461578508918
0.736,0.05541234926900884,0.03594161619291225
0.74,0.057223836236449444,0.040157661219430096
0.744,0.08114070587912292,0.06047229858513026
0.748,0.1195290921206118,0.09159697142722512
0.752,0.16227327681135728,0.125898815747981
0.756,0.1986471120270854,0.15509037249321933
0.76,0.22149801218266796,0.17508814071300938
0.764,0.22969402500972258,0.18840469851037756
0.768,0.22673306587548958,0.20059259878958446
0.772,0.21812087586223416,0.21445651956259915
0.776,0.20916214161341795,0.2276826276228956
0.78,0.2039973845256009,0.23524704761069226
0.784,0.20541254087032446,0.23407883377169814
0.788,0.21459782593676402,0.22652320384404323
0.792,0.23120848480015432,0.21990307689843802
0.796,0.2540177289720009,0.22226548145344083
0.8,0.2819123254688993,0.23831525991128433
0.804,0.3129722083679345,0.2672762086953686
0.808,0.33988920271133494,0.29975539462745715
0.812,0.34609773659996756,0.3146561401268315
0.8160000000000001,0.3076631735987849,0.28213827287311255
0.8200000000000001,0.20189403234784442,0.17590268704078094
0.8240000000000001,0.024569725867638503,-0.0073940953518720764
0.8280000000000001,-0.18952928581335504,-0.2297987695495478
0.8320000000000001,-0.3639834369265743,-0.41090525776840214
0.836,-0.4103560164735427,-0.4572351990735595
0.84,-0.27433752624598784,-0.31133841881829893
0.844,0.031433713581248135,0.011037580860648877
0.848,0.42411863487491286,0.41902098308555935
0.852,0.7770077648564553,0.7794032469655114
0.856,0.9669943989035221,0.9682943803921802
0.86,0.9250164571062613,0.9203707713090077
0.864,0.6655805105924455,0.6544031852445642
0.868,0.28098298028819313,0.2647518950398573
0.872,-0.09626776178644669,-0.11568642556151243
0.876,-0.3463877133955513,-0.3665968124100639
0.88,-0.4086562313991976,-0.4266271281949756
0.884,-0.3006893349155447,-0.31469473029885864
0.888,-0.10008616153825278,-0.11187931326149658
0.892,0.10332536795471592,0.08821993993268329
0.896,0.25187310697821785,0.2260655213746059
0.9,0.3303999015138661,0.28994781556298976
0.904,0.3504352078892987,0.29975739733151396
0.908,0.3335044006105927,0.28323468414601827
0.912,0.30118719750336087,0.2615017075485395
0.916,0.26939700732840843,0.24533878069312376
0.92,0.24704430727101778,0.23711247140103398
0.924,0.2380613199946462,0.2351613324465427
0.928,0.2423021329298498,0.23735415534562998
0.932,0.25444002487833495,0.24187732448709376
0.936,0.26588027890779187,0.24634221379716292
0.9400000000000001,0.27053029077108937,0.24769172451506294
0.9440000000000001,0.2685548704634293,0.24466076685929528
0.9480000000000001,0.2645443555676479,0.2399120131009247
0.9520000000000001,0.26216139859807996,0.23731029721145092
0.9560000000000001,0.26022626931975257,0.23611198999009764
0.96,0.2538512451382451,0.2295866119538641
0.964,0.238430739356422,0.21076864901707704
0.968,0.2116439692704437,0.17807729626712887
0.972,0.17369188797464274,0.13487688101851036
0.976,0.1285093013771479,0.0865321581429166
0.98,0.08371602429061653,0.03942378822595938
0.984,0.0468878408317166,0.0006389849802526104
0.988,0.022019039163569287,-0.02434287434088911
0.992,0.009656439812603557,-0.03422627224975705
0.996,0.008557322082757945,-0.031249204277333686
1.0,0.01628819872129106,-0.018568816793755216
1.004,0.029848953605544404,0.0013610107806323324
1.008,0.04741842022688014,0.02686103478008328
1.012,0.068958810374244,0.056172173320567786
1.016,0.09499289512100506,0.08736711904929728
1.02,0.1254762370643685,0.11976822027630796
1.024,0.15909773033766927,0.15487033640713044
1.028,0.19391045773008453,0.19439217342800652
1.032,0.2292124377429796,0.236730787826126
1.036,0.2654034053482244,0.2767794551907703
1.04,0.3013965425108567,0.30990614010211437
1.044,0.3335377305951641,0.3343591017812815
1.048,0.35815395167206665,0.3500745096605524
1.052,0.3738353939461081,0.3576390441624182
1.056,0.3803094209802791,0.3581647055180226
1.06,0.3772846466226658,0.3528927328567151
1.064,0.3656545904604518,0.3429216283777252
1.068,0.3481973887202445,0.3283310929736811
1.072,0.32753232934311316,0.30785521016314155
1.076,0.3040579871055358,0.28076392086929847
1.08,0.2768502816411602,0.24795191648004078
1.084,0.24576782783569384,0.21159583141939198
1.088,0.21174608900165315,0.17511870304173716
1.092,0.17531822973882116,0.1418154884837044
1.096,0.13648079340483132,0.11247329223000957
1.1,0.09727191618316477,0.08503355278111746
1.104,0.06311512887423087,0.05698889999360679
1.108,0.0394489815351271,0.02827261290261629
1.112,0.027429076043512746,0.0019377456468874232
1.116,0.024351370608091782,-0.017609847470010376
1.12,0.027452941616989968,-0.02672489505795661
1.124,0.03613839571520594,-0.023556973698312555
1.1280000000000001,0.05108293049409074,-0.008136298691990063
1.1320000000000001,0.07241959872639359,0.01857917008141241
1.1360000000000001,0.09967309309224603,0.05572707010455402
1.1400000000000001,0.13267090755564648,0.10145615481229742
1.1440000000000001,0.170253371910992,0.1507387632515107
1.1480000000000001,0.20740609183112668,0.19574291658471754
1.1520000000000001,0.2357486180657744,0.229210518225057
1.156,0.24854524215208196,0.24744446125793162
1.16,0.24528876316030845,0.25075005636414005
1.164,0.2321558125023344,0.2419990413786579
1.168,0.21879130830016136,0.22535636282078864
1.172,0.21306231041097012,0.20578982242233335
1.176,0.2165753435578388,0.18792326250814062
1.18,0.22496625709638707,0.17526539178046896
1.184,0.2327975282390724,0.1704838733103795
1.188,0.2373623861671017,0.17422917064108878
1.192,0.23808576884671107,0.18351647181447528
1.196,0.23419818595839148,0.19303348140929621
1.2,0.2247094283632347,0.1986512347259124
1.204,0.2110838228162577,0.19980616554652553
1.208,0.1982593814374014,0.1984447996537233
1.212,0.19114501607863166,0.19564659986405775
1.216,0.19065648228104304,0.19073341376658148
1.22,0.1937047767661888,0.18398046618498154
1.224,0.19617685407790564,0.1774642434416407
1.228,0.19591748176726664,0.1727107584743568
1.232,0.1935573055001485,0.16986939303300064
1.236,0.1912080904486222,0.16864011046029725
1.24,0.1904130807460933,0.1682829475694103
1.244,0.19046765736660243,0.1675639599761518
1.248,0.18836733645316817,0.1653265476390724
1.252,0.18137392243933448,0.16089068405411822
1.256,0.1707011465459003,0.15438907922043166
1.26,0.1617905910836548,0.14720209324129785
1.264,0.15994010303864514,0.14180321564833998
1.268,0.1658731448268278,0.14059714083423036
1.272,0.17544094617682693,0.14443577333203694
1.276,0.18342137313412765,0.15198794210301414
1.28,0.18742383240946237,0.16053363087892292
1.284,0.18822127800096555,0.16714549338593887
1.288,0.18745933344429777,0.1696158248079398
1.292,0.18610448113141276,0.16732466603069307
1.296,0.18444184492399396,0.1614768623795415
1.3,0.18232356745792067,0.1550198203498081
1.304,0.1794366522275419,0.15171112187252533
1.308,0.17567955297648585,0.15391322279957542
1.312,0.17176066234658482,0.1613428562102468
1.316,0.16975032194532824,0.17102575951995913
1.32,0.17192177750296045,0.17841055556338947
1.324,0.1784687697164169,0.18047473289812643
1.328,0.18718262199423474,0.1775839701629216
1.332,0.19542832386639386,0.17224183301385132
1.336,0.2018195699955414,0.16763417434048566
1.34,0.20614852304793674,0.16612407086623193
1.344,0.20857501650829247,0.16710868737564355
1.348,0.2088818957257379,0.1675309887739056
1.352,0.20609577970439674,0.16516841877807842
1.356,0.19974233053449897,0.16029201811721605
1.36,0.19137510610715336,0.1542425717181175
1.364,0.183382464299773,0.14808278430841293
1.368,0.17751073652263782,0.14334127568485355
1.372,0.17573551127933085,0.14236201933621473
1.3760000000000001,0.17973753721160723,0.14654416955985816
1.3800000000000001,0.18826922164751303,0.15474652940054257
1.3840000000000001,0.19717981493312697,0.16437160221988667
1.3880000000000001,0.20225220792373655,0.17349852708041258
1.3920000000000001,0.2012460737108417,0.18042915053041186
1.3960000000000001,0.1946165623285443,0.18269836643288806
1.4000000000000001,0.1856984752284876,0.17889483375509774
1.4040000000000001,0.17897018117141195,0.17014096679504265
1.408,0.1766909439604798,0.15917455825410842
1.412,0.17769281899450107,0.14942566044834904
1.416,0.17963426218870038,0.1439968706058159
1.42,0.18174399004176744,0.1441211137041909
1.424,0.18454983883808307,0.14918886921742502
1.428,0.1876454161693062,0.15803777045487588
1.432,0.18970440499584384,0.16940660856430312
1.436,0.18999835711411062,0.18151063087434083
1.44,0.1883413579891755,0.19193759966496327
1.444,0.1846800208904149,0.19818991820618925
1.448,0.1801011573260738,0.19854358524284943
1.452,0.17711127630943735,0.19317945231825062
1.456,0.1776902271196108,0.18454323863883437
1.46,0.1820011629213425,0.1761912290672969
1.464,0.18907803426541614,0.17103502856642638
1.468,0.1973527614331192,0.16960998093833157
1.472,0.20468873334056537,0.169896171792717
1.476,0.20905782787697302,0.16943597700440005
1.48,0.20940756994150123,0.16742871367538759
1.484,0.20606745815700545,0.16535194420286725
1.488,0.20099879936735565,0.16560209299461803
1.492,0.19763366218162637,0.16858088772323887
1.496,0.19950720167537295,0.1720953251938626
1.5,0.20761785206310046,0.174371734259974
1.504,0.2181118184732136,0.17541938602622875
1.508,0.22297093993770334,0.17431477992766164
1.512,0.21406609028778112,0.1671226904783829
1.516,0.1877709570552195,0.1494100746379785
1.52,0.14763273772820673,0.12128879039480545
1.524,0.10359098516623289,0.08890731306000221
1.528,0.06763553368580633,0.06069959589332008
1.532,0.0492278815303957,0.044225522659441685
1.536,0.053435603387181896,0.04623979238650944
1.54,0.0809791472957786,0.07095888723004729
1.544,0.1285717923203078,0.1159425955068405
1.548,0.18906560523045712,0.17242535573744933
1.552,0.2520276831823991,0.23003799347052234
1.556,0.30637758307708074,0.27956146187488273
1.56,0.34427724066437215,0.313288467588996
1.564,0.361924792054761,0.32562796458275645
1.568,0.35698777229191925,0.314216837895958
1.572,0.32789414142387785,0.2805643162932996
1.576,0.27668742961187,0.22978753205086444
1.58,0.21172689396594535,0.17010698604177654
1.584,0.1465544030129593,0.11235865025775249
1.588,0.09475265726452742,0.06846361793772315
1.592,0.06457358329653928,0.047437804573463804
1.596,0.057694378238081656,0.051134142297522
1.6,0.07163790319845598,0.07429313699281215
1.604,0.10147285648420268,0.10828086340088094
1.608,0.1395586048852031,0.14389197085147276
1.612,0.17631210587133128,0.17273580213043727
1.616,0.20350745231382938,0.19015930877598697
1.62,0.21795916453966724,0.19759455964985229
1.624,0.22251248350115516,0.20033382460633598
1.6280000000000001,0.2226708737547345,0.20293875071954526
1.6320000000000001,0.22143709768987518,0.20640146751009492
1.6360000000000001,0.21858050950970287,0.20887117659067633
1.6400000000000001,0.21464622590647808,0.20881780770279468
1.6440000000000001,0.21304404175570668,0.20690428316231269
1.6480000000000001,0.21755967682688993,0.20540190244648882
1.6520000000000001,0.22942244728479988,0.20774377340413785
1.6560000000000001,0.24791711118654614,0.21852789853596732
1.6600000000000001,0.27249171702996544,0.2407745526074383
1.6640000000000001,0.3009241606725688,0.2705498450023376
1.668,0.32330967236857067,0.29320427222790624
1.672,0.31821293819767615,0.2843688899841452
1.676,0.2575077473343814,0.21657462510983239
1.68,0.12155039656194155,0.07268071043643354
1.684,-0.07825837908194921,-0.13256781563868192
1.688,-0.28138413090227055,-0.33538030959113974
1.692,-0.39070184282974973,-0.43838539162753154
1.696,-0.3234980947407339,-0.3620923003502903
1.7,-0.06407950275314045,-0.09409488721031278
1.704,0.3198609987815235,0.2968746722854003
1.708,0.7018821610987382,0.6836841326478855
1.712,0.9480078088780373,0.9294786457863213
1.716,0.9707556634448022,0.9445758581709018
1.72,0.762409746038716,0.7251084323468635
1.724,0.396622606170719,0.35334741321455465
1.728,-0.0007141324773739521,-0.039116960827287106
1.732,-0.3011994078845077,-0.3251593084616684
1.736,-0.42401686366929303,-0.42904528765455974
1.74,-0.3635908052017812,-0.35054030080490206
1.744,-0.1817004861147613,-0.1564481307962241
1.748,0.03160178036464045,0.0595623741008402
1.752,0.20415346028787718,0.22460723543978856
1.756,0.3056248087714821,0.31027767878874624
1.76,0.34140158013148336,0.326554680251693
1.764,0.3334427298560303,0.30209878961305314
1.768,0.3055292381199408,0.2654277782674219
1.772,0.2759847933563344,0.2344388226902998
1.776,0.2549782907293765,0.21617449405977407
1.78,0.2451958190240473,0.21144974494056812
1.784,0.24448950899646094,0.2174617506415959
1.788,0.24867737911682308,0.22904773185088012
1.792,0.2536254165782481,0.24127308625085964
1.796,0.2566951213702058,0.25109583898465426
1.8,0.25826348128990184,0.2573538131954285
1.804,0.26156147745055147,0.2600431681805777
1.808,0.2683242130682917,0.2586462088875525
1.812,0.27414982303103486,0.2509201079047785
1.816,0.2700900983102197,0.23331968848073625
1.82,0.250031712661291,0.2037015906245656
1.824,0.21585294396425114,0.164754349268313
1.828,0.17452067244611436,0.12315773391004825
1.832,0.13231260350681695,0.08486148346530764
1.836,0.09344952154392727,0.05261676003421312
1.84,0.06111364415131049,0.027249425550812445
1.844,0.03726563805579741,0.008404018010685244
1.848,0.022828522015897024,-0.0058531722619384885
1.852,0.018000963639325462,-0.016782024688629105
1.856,0.021170590550868784,-0.021846310758763643
1.86,0.02928804515843053,-0.016091993064306087
1.864,0.040956636331449525,0.003371328548911423
1.868,0.05757223108952947,0.03490745429282893
1.872,0.08029657120770262,0.07330975110336446
1.8760000000000001,0.10797902157465389,0.1130435858312151
1.8800000000000001,0.13954815017653455,0.15127776147526362
1.8840000000000001,0.17601326856610755,0.18808942342726875
1.8880000000000001,0.21768806013659447,0.2242087307253029
1.8920000000000001,0.2613340692832842,0.259031438716536
1.8960000000000001,0.30221285607228965,0.2906430538279039
1.9000000000000001,0.33733284978994393,0.3169233859273599
1.9040000000000001,0.36503661394808384,0.33668800101202767
1.9080000000000001,0.3830643928423063,0.3501533460498121
1.9120000000000001,0.389552561327706,0.3576822443630221
1.9160000000000001,0.3855402300002633,0.35862906156332075
1.92,0.37431505412189714,0.352175113022815
1.924,0.3581210173446481,0.33813549555940003
1.928,0.3367615489294222,0.31689917448904836
1.932,0.30977744984150046,0.28993339634802906
1.936,0.2787509276402227,0.25961599976505423
1.94,0.2459575834944301,0.22754091327786097
1.944,0.21185931883572695,0.19372834984369947
1.948,0.17643701409878676,0.157592224258861
1.952,0.14228245390017347,0.11935024733733313
1.956,0.11330011641442161,0.08063094058005627
1.96,0.09024203571955436,0.044021551590829766
1.964,0.07014556174641817,0.012850628313880952
1.968,0.05035259903040634,-0.009220189679042035
1.972,0.0314204353684977,-0.02000449405982685
1.976,0.016930086320708915,-0.020089106029174908
1.98,0.011784318200421584,-0.011579351039552654
1.984,0.01986778559647151,0.004374041803653306
1.988,0.042339330348225124,0.027885216088426867
1.992,0.07710762303491747,0.0583390691185699
1.996,0.11900618516599004,0.09405661875923954
2.0,0.16128355935011407,0.13356598329377412
2.004,0.19791656988645023,0.17475800006225928
2.008,0.22500764712627985,0.21293169069944962
2.012,0.24103725059806358,0.2414916312739399
2.016,0.2463563650947025,0.2557075935593256
2.02,0.24257780947601915,0.2556536978103887
2.024,0.23276446071582813,0.24499757420049884
2.028,0.22149286196919027,0.22844340967375865
2.032,0.2134759342268009,0.21110879344800115
2.036,0.21185313219686974,0.1976365491341905
2.04,0.2170735697506474,0.18972951930696547
2.044,0.22581267889881773,0.18539973956937628
2.048,0.23182893101643764,0.18176420178102526
2.052,0.2304355981539543,0.17795164618925274
2.056,0.22218883218747698,0.17486871925322078
2.06,0.21117167622879096,0.17360708299840755
2.064,0.20098869868215385,0.17427748201546867
2.068,0.19391775946894185,0.17527571986873247
2.072,0.19153558515985591,0.17468498493555162
2.076,0.19313152195016192,0.17274988634509225
2.08,0.19590702597596477,0.17158136074762442
2.084,0.1988776006000792,0.1725775756643293
2.088,0.20336259688552283,0.17501893580515393
2.092,0.2091610974913387,0.17705930041017237
2.096,0.21331922436327777,0.17682022122670138
2.1,0.2124442558258426,0.17262089390668645
2.104,0.20492765259384105,0.16441477839202423
2.108,0.19168627248503478,0.15485443049701653
2.112,0.1759131126774156,0.1475912723251649
2.116,0.16249798045444774,0.14534996167416514
2.12,0.15638807005961275,0.14911590917386075
2.124,0.15931475278709484,0.15748465211898388
2.128,0.16820253894586035,0.16702341884656402
2.132,0.17766346884484197,0.17343057191212363
2.136,0.18364583117428657,0.17299889793737733
2.14,0.18510610850294973,0.16527184427063935
2.144,0.1833887836130994,0.15450181278366482
2.148,0.18075764617726597,0.14687634424487683
2.152,0.1791627189284688,0.14625906554489565
2.156,0.1797542713033944,0.15271031366864696
2.16,0.18298113638170932,0.16319152235037016
2.164,0.18772774584300067,0.17279455729765525
2.168,0.19070330863622864,0.17712249728178775
2.172,0.18844718659703985,0.17474847646271252
2.176,0.18034931962793932,0.16770058172729896
2.18,0.16985482023911969,0.15995341213648429
2.184,0.16255787749597994,0.15487309298993446
2.188,0.1625403357326558,0.15361120469653766
2.192,0.1701079075220875,0.15540149292580763
2.196,0.18235563192778215,0.15826719942468492
2.2,0.1952469347854524,0.16027660917078257
2.204,0.20516937019413573,0.16136839700532102
2.208,0.2101978074834765,0.16327526291919137
2.212,0.21077595852959075,0.16688485327358782
2.216,0.20832849671536557,0.16988212779196088
2.22,0.20393475119856896,0.1685691925878703
2.224,0.1987107360638929,0.1624894260092109
2.228,0.19385710523680233,0.15552811145368595
2.232,0.18979970409996416,0.15222582515621008
2.236,0.18635601507155375,0.15385941752003252
2.24,0.18388701094719373,0.1581422398342851
2.244,0.18330725144574367,0.16244974659538713
2.248,0.18498303619837242,0.1661925145612726
2.2520000000000002,0.18767446872429283,0.16980509194293103
2.2560000000000002,0.18870525390377968,0.17362938455671562
2.2600000000000002,0.18627040270434225,0.17820970433797823
2.2640000000000002,0.1813119519744968,0.1835240591295455
2.2680000000000002,0.1766167341082987,0.18783644553767598
2.2720000000000002,0.174942749589587,0.18851474272110957
2.2760000000000002,0.17774875917079203,0.1840242300498507
2.2800000000000002,0.18408299151918106,0.17522683006988937
2.2840000000000003,0.190464670486862,0.16506226021880388
2.2880000000000003,0.1931837311800364,0.15698572923904086
2.2920000000000003,0.19124510458912636,0.15291252825008805
2.2960000000000003,0.1871349394952806,0.15210156854136003
2.3000000000000003,0.18520642098513207,0.15304581311824794
2.3040000000000003,0.18861241227381642,0.1558802264259651
2.308,0.19660863725058841,0.1614465666234206
2.312,0.204814447007738,0.16926938517968448
2.316,0.20826250180170924,0.17727286667525033
2.32,0.20492537580312487,0.18256303704945975
2.324,0.19739477015358187,0.18288614166183992
2.328,0.19056947903620514,0.1780714095615341
2.332,0.1872903207592651,0.17045224145961413
2.336,0.18667725006672709,0.16399645023827092
2.34,0.18633099139972176,0.16183340682129832
2.344,0.18609912471757117,0.1640813778377399
2.348,0.18883106886018286,0.16827605098963905
2.352,0.19636804920727946,0.17184973369901502
2.356,0.20693323618472315,0.17465737793076297
2.36,0.21715746425538396,0.1787591815801992
2.364,0.223481366200456,0.18437453757091804
2.368,0.22116710016205166,0.1859821307059728
2.372,0.2052145269696244,0.17476569996370017
2.376,0.1743164773756809,0.146583910985703
2.38,0.1337093349380145,0.10643488148681501
2.384,0.09367972670975422,0.06565408757446844
2.388,0.06530535475858734,0.036949877222139715
2.392,0.05668497658016447,0.030328246728934527
2.396,0.071470637498247,0.050261401680093964
2.4,0.1090387195152629,0.09538000217267273
2.404,0.16392457840447094,0.15862523960056674
2.408,0.22550627758732933,0.2264102742531715
2.412,0.2811585077788987,0.28203360097991825
2.416,0.32104587964142683,0.31432248408720387
2.42,0.3400514079419805,0.3217849109960098
2.424,0.336912902960544,0.3076193164309
2.428,0.3132318912974197,0.2743325064117579
2.432,0.2724656737186839,0.22508632939982753
2.436,0.21944191447129002,0.16742883841585043
2.44,0.16189085133233716,0.11319632565974969
2.444,0.11074507948792256,0.07436271677682882
2.448,0.07641596186385269,0.057335576962428414
2.452,0.06459131746817293,0.06048004542281937
2.456,0.07510516491872576,0.07831771074647742
2.46,0.10290822223387419,0.10617477078477955
2.464,0.1391303857802253,0.13906658796367144
2.468,0.17350817272869024,0.1694798326430147
2.472,0.19901216382678633,0.1899741855291215
2.476,0.21474024254851143,0.19837389409104578
2.48,0.2240216916551243,0.19870037949009967
2.484,0.23000698467467906,0.19647696194585906
2.488,0.23303585193776155,0.19508945796790456
2.492,0.23205374659681954,0.1962855438817912
2.496,0.22781058832535872,0.20057744824554735
2.5,0.22370945413136112,0.20677856909184422
2.504,0.2240085047996112,0.21352383833990118
2.508,0.23164601267292606,0.22185871283239167
2.512,0.2476508300236091,0.23542667540427376
2.516,0.2721363874769023,0.2569858616648777
2.52,0.3024031115353547,0.28416887709983785
2.524,0.32690594480723845,0.3065151628549583
2.528,0.3229657307230023,0.3033806616233232
2.532,0.26362078883947393,0.24697509089919034
2.536,0.1312892919159252,0.11556926248044697
2.54,-0.06425289551613134,-0.08510790556391468
2.544,-0.27076945205179426,-0.30300505960947866
2.548,-0.4005013491195355,-0.44527810082676067
2.552,-0.36935670432120593,-0.420610592516682
2.556,-0.1463703801903874,-0.19411276108087083
2.56,0.22102822822093482,0.18504688939341496
2.564,0.6198680854637757,0.5989762391976181
2.568,0.9143501586734393,0.9069049716700079
2.572,1.0,1.0
2.576,0.8457543283969862,0.8444417421173742
2.58,0.5064122844460814,0.49480194550531076
2.584,0.10164719176927006,0.07177103514577521
2.588,-0.23191462856896583,-0.2847923763311502
2.592,-0.3959176172139687,-0.4693720446390758
2.596,-0.36655623181688923,-0.45102234615346026
2.6,-0.1963959872204104,-0.27984958465937004
2.604,0.019700505997923168,-0.05251891411263254
2.608,0.19713237268469874,0.14268195212009216
2.612,0.2972587164161937,0.26322303483195664
2.616,0.3262544723180718,0.3121238670362838
2.62,0.3119896740930108,0.3148191829200946
2.624,0.28218590107883923,0.2975239188326726
2.628,0.25401849241065055,0.2775652364474792
2.632,0.23496915641074834,0.26292965891438036
2.636,0.2276466564720272,0.2551928414022797
2.64,0.2315506065759494,0.25326753086272435
2.644,0.243010786407593,0.2556367598863196
2.648,0.25654558739325806,0.2594327207322211
2.652,0.26655673281360315,0.2603236713961905
2.656,0.2693584732934937,0.25633233059614713
2.66,0.26595064924822576,0.250739107799532
2.664,0.26123174870177435,0.2486607417172393
2.668,0.2584803519881276,0.25006440268677066
2.672,0.255508702466279,0.24737715869363042
2.676,0.24667130220117017,0.2312779975459469
2.68,0.2273221079055454,0.19807740100058235
2.684,0.1959607071965368,0.15121742453205522
2.688,0.15446228650025717,0.09834972126130337
2.692,0.10828157141046879,0.04818863881536606
2.696,0.06518638909668706,0.008274854649332752
2.7,0.032193897805800065,-0.016583415712696947
2.704,0.01315695799696548,-0.026107352755063262
2.708,0.008292472721218802,-0.025175025595132294
2.712,0.015445328351150867,-0.020163401397642167
2.716,0.03154892390057418,-0.013476640375771898
2.72,0.0529439855156113,-0.0026433079050209862
2.724,0.07613685201850329,0.015596724277485263
2.728,0.09952288383259966,0.04217242779067498
2.732,0.12347330662946865,0.07630649168099057
2.736,0.1488537525059186,0.11666303708976034
2.74,0.17664972964456638,0.1610285142512926
2.744,0.20779367620359368,0.2060930451081624
2.748,0.24127002829093946,0.2482777966039249
2.7520000000000002,0.2736835128014967,0.28511811274657095
2.7560000000000002,0.3022768864909453,0.3160391819973727
2.7600000000000002,0.32682756523240064,0.34160566103137335
2.7640000000000002,0.34790284385701953,0.36213840486253446
2.7680000000000002,0.36447020415449827,0.37688894669982687
2.7720000000000002,0.37395266154250706,0.38402249342688877
2.7760000000000002,0.3748030980973802,0.38146945171077506
2.7800000000000002,0.36752194354437284,0.3678437656029723
2.7840000000000003,0.3526100926328446,0.34311789044465124
2.7880000000000003,0.3300111810269175,0.30974981880220387
2.7920000000000003,0.30043921060610734,0.272498627619443
2.7960000000000003,0.2655796263877235,0.23507517806821032
2.8000000000000003,0.22810944172639647,0.1971532087142911
2.8040000000000003,0.19151154776217005,0.15695266300423039
2.8080000000000003,0.15810726296233124,0.11645974548477289
2.8120000000000003,0.12745064298420883,0.08064800198294853
2.816,0.09801988589835653,0.051971656006660316
2.82,0.07026874865606092,0.029174393403734955
2.824,0.04693043286556975,0.010343005325911925
2.828,0.031194995691300242,-0.005194313407672513
2.832,0.025050915635890236,-0.016159264863868206
2.836,0.028082561165350572,-0.019377828089998772
2.84,0.03856271220853791,-0.011573005117440305
2.844,0.05597509987263338,0.0086764465796898
2.848,0.0806487560937077,0.04049415261702882
2.852,0.11151667414220823,0.08115032550862122
2.856,0.14555758105006533,0.12602982930458606
2.86,0.17832466889535015,0.168339029524732
2.864,0.20441492490066349,0.20061316651305394
2.868,0.21974059019648395,0.21848806076127225
2.872,0.2249493982788211,0.22347270662517782
2.876,0.22484544636572967,0.22136027630991184
2.88,0.22407817200579871,0.21796897749508526
2.884,0.22495209263478788,0.21627786005369276
2.888,0.2278161195022208,0.21567495014465887
2.892,0.23140286872150995,0.21318395158108516
2.896,0.23382495358925226,0.20662910201905782
2.9,0.2339772145123764,0.19703840773939874
2.904,0.23166141241603389,0.18809649154759311
2.908,0.22702100218854349,0.18337357575985602
2.912,0.2207114728150914,0.1836624818513528
2.916,0.21432583313543008,0.18683427009604725
2.92,0.20906031692974314,0.18976173417452902
2.924,0.20407025256589484,0.19004570188384107
2.928,0.19801838572546715,0.18690108742314937
2.932,0.19184769954498293,0.18108605183010473
2.936,0.18819350085164888,0.17429932558449202
2.94,0.18829850245017865,0.16882697007405723
2.944,0.19063549741114105,0.16630007136659097
2.948,0.19241867000586788,0.1661116267610967
2.952,0.1920163766694296,0.1667933765340721
2.956,0.1896763579135483,0.16862501150565445
2.96,0.18657098628528512,0.17263224949695832
2.964,0.18407981215113312,0.17785898118791477
2.968,0.18350628323122042,0.18143399795979898
2.972,0.18544152705459482,0.18064445785098848
2.976,0.18888709952803917,0.17434027374624184
2.98,0.1913672838455771,0.163616282404623
2.984,0.19042261298770025,0.15190897169918238
2.988,0.18534619489297022,0.14336551672172293
2.992,0.1778850714531286,0.14070753722604068
2.996,0.1711522891306485,0.14416636343400446
3.0,0.16789636180978662,0.15080920902730433
3.004,0.16937561497265574,0.15565938409154345
3.008,0.17463693475423847,0.15541983232552492
3.012,0.18098294799386871,0.15094812040795702
3.016,0.18560064462264192,0.14630730862921504
3.02,0.18658163961963936,0.14594574081430878
3.024,0.18372780729398364,0.1511276914190085
3.028,0.17921135842747193,0.1583747245482865
3.032,0.17599430916936143,0.16309136301039118
3.036,0.1758649245186228,0.1644620736783755
3.04,0.1798313841253325,0.16520240719524582
3.044,0.18762316685385683,0.16755658143491448
3.048,0.19555477374093622,0.17089108536462216
3.052,0.19866917863636369,0.17239704004928869
3.056,0.19603593031888367,0.16978913346869406
3.06,0.1912747316344401,0.16362837148506837
3.064,0.1886287969220375,0.15684114547903172
3.068,0.18988767672454365,0.15273473855841257
3.072,0.19360665933206622,0.15353475406160189
3.076,0.19640216478467631,0.15905891780494819
3.08,0.19583542413966737,0.16658415950170058
3.084,0.19275569015048521,0.1730094797018078
3.088,0.18993425505527273,0.17663127971190518
3.092,0.18885634889476988,0.1766616533435741
3.096,0.18947473657592395,0.17279572116674435
3.1,0.19103089346526425,0.16630180733884248
3.104,0.19177003762161293,0.16027920972061316
3.108,0.1900316566766984,0.1576174710049747
3.112,0.1857194644902307,0.15931191740455164
3.116,0.1800245762030035,0.16494296852812518
3.12,0.17517332093908133,0.17316962792597268
3.124,0.17407438182274282,0.18142958181668023
3.128,0.17771432256009412,0.18669138284183928
3.132,0.18321426657709905,0.18696373686746726
3.136,0.18658605246504578,0.18203713546732292
3.14,0.18683533985708145,0.17364785317075127
3.144,0.18575272802883935,0.16495853895375934
3.148,0.18477994960386424,0.15822803040009914
3.152,0.18416338564403412,0.15279860753180619
3.156,0.18484240101230953,0.14712636577183402
3.16,0.1888677621702448,0.14208016631490428
3.164,0.19701223964270742,0.1409767948842977
3.168,0.20704498337139632,0.14722470323864822
3.172,0.2149221880642107,0.16092467609286687
3.176,0.2178986188147085,0.17716885053213627
3.18,0.2162463519774247,0.18928322248881035
3.184,0.21173548034728973,0.19345614030183245
3.188,0.2063351356241221,0.19024874958541083
3.192,0.2020414208959298,0.18329195512019703
3.196,0.19922517907591275,0.1766362157756911
3.2,0.1960584012483697,0.17216201370656914
3.204,0.19130607946884504,0.169227502515922
3.208,0.18656933747613658,0.16714988909168094
3.212,0.18448087356381038,0.16728257555534554
3.216,0.18500529681874522,0.17199168774934215
3.22,0.18483427372863703,0.18126357282219563
3.224,0.18011913516546318,0.18921496803230808
3.228,0.16842184849702435,0.18494110291520172
3.232,0.14923333537442462,0.16050851210732953
3.236,0.12490179315915317,0.11948590717716923
3.24,0.10106366647210985,0.07567605877156192
3.244,0.08426206942836334,0.04348008960165095
3.248,0.07891297700962174,0.03145361884872466
3.2520000000000002,0.08809953692572203,0.04276003799918682
3.2560000000000002,0.11480870881715033,0.07630744060304684
3.2600000000000002,0.158413989323535,0.12662412153475255
3.2640000000000002,0.21160006374242712,0.1857453958440598
3.2680000000000002,0.2634431456979007,0.2458538480459871
3.2720000000000002,0.3047515216690344,0.2987665488763842
3.2760000000000002,0.33030668152079223,0.33453615570236916
3.2800000000000002,0.33784107774489636,0.34410145772370115
3.2840000000000003,0.32682351977881874,0.3241588110415201
3.2880000000000003,0.2987345438441771,0.27889237481701956
3.2920000000000003,0.25678148992129635,0.2179177820499092
3.2960000000000003,0.20490665750998205,0.15303394967154338
3.3000000000000003,0.14904684797027534,0.0952125855616166
3.3040000000000003,0.0986580334314433,0.05286076647790572
3.3080000000000003,0.06492948309131985,0.031143167051634002
3.3120000000000003,0.05711911900812949,0.031260798976006754
3.3160000000000003,0.07817996124015902,0.0509693013252881
3.3200000000000003,0.1211483113996179,0.08569247279832859
3.3240000000000003,0.17061954979200844,0.12766335861887068
3.3280000000000003,0.21023369527154978,0.1664532746026084
3.332,0.23155893758845592,0.19411812218936464
3.336,0.23711642937033028,0.2092066723601762
3.34,0.23484514500304465,0.2150250441651531
3.344,0.23087474100577965,0.21584584143905716
3.348,0.22714186538989667,0.21460454895971703
3.352,0.2235223375167794,0.2123049921386464
3.356,0.2212878099449347,0.20902091743866102
3.36,0.22340854283612277,0.20630390131488463
3.364,0.23164508982169907,0.20843772138565897
3.368,0.24582897317402153,0.21975738009766
3.372,0.2658816815355438,0.24140988484999126
3.376,0.2915303014278863,0.2706227688473688
3.38,0.317088183220823,0.2986082362196325
3.384,0.32536364823975816,0.3068149744295807
3.388,0.2887681821630992,0.2687015524913883
3.392,0.1815889804685633,0.1607065550083122
3.396,0.0010948176660092734,-0.01934203673705126
3.4,-0.21222106330919444,-0.23262387678236485
3.404,-0.37554701957961023,-0.39770354305862987
3.408,-0.3983146846837168,-0.4227031832083734
3.412,-0.23226608773908597,-0.2557394596331176
3.416,0.09627520098022124,0.07961312923609287
3.42,0.48991660948653193,0.48489080951969954
3.424,0.816186088979487,0.8231138082767584
3.428,0.9600751557745892,0.9738141139196566
3.432,0.8707839558318913,0.8824356710250827
3.436,0.5820007459235694,0.5824978646053829
3.44,0.1975664762211966,0.18068664513711075
3.444,-0.15066277607024436,-0.18699929767245504
3.448,-0.35501614858017194,-0.4078615223449613
3.452,-0.3721437182706725,-0.43407636665937266
3.456,-0.23466457160628662,-0.29695875083159107
3.46,-0.027494865039581762,-0.08307016803584011
3.464,0.16097246409350396,0.11669672006033105
3.468,0.27974942328069186,0.24889121045611629
3.472,0.32333592795612165,0.30530781973780297
3.476,0.3155692711594831,0.30625975964234753
3.48,0.28808837305800683,0.27989749364354455
3.484,0.2637494286345705,0.24893377668432515
3.488,0.250748294620055,0.2265993084630129
3.492,0.247465109821269,0.21773789986409176
3.496,0.24954457889430337,0.2209410634501865
3.5,0.2526800010417085,0.23069813468999967
3.504,0.2540162859486106,0.24034935792269008
3.508,0.2538702639336421,0.24563609265621444
3.512,0.2548027449742385,0.24663070760471784
3.516,0.2589740966259102,0.246511178912034
3.52,0.2665275520515562,0.24841663905170286
3.524,0.27453642314759574,0.2523437028440618
3.528,0.2769985575892784,0.25337117677333976
3.532,0.26763479804364665,0.2438462645478856
3.536,0.2436983813236353,0.21956342448210897
3.54,0.20760568121993983,0.18271608642550197
3.544,0.1652465137979542,0.13830897440074308
3.548,0.1218040159950049,0.09119596798437368
3.552,0.07942273001223876,0.04636477043156906
3.556,0.04026881593413223,0.008504699359409784
3.56,0.009781670894766226,-0.018327384441637395
3.564,-0.006174777676862142,-0.031003420422620387
3.568,-0.00644127916116688,-0.029481047409946393
3.572,0.005219665895361825,-0.017129532104522505
3.576,0.024225787554117195,0.0020922565771803736
3.58,0.04771400693277994,0.025362985049678377
3.584,0.07437852763162,0.05082349769543071
3.588,0.1044764859766083,0.07788662303600913
3.592,0.13935679328895634,0.10790805517899571
3.596,0.17925473454488872,0.14316692883141902
3.6,0.22212013324615087,0.18422630081698665
3.604,0.2651697821137269,0.22846781666454996
3.608,0.3063223706287663,0.27131505305936754
3.612,0.34299242624394277,0.30859395934311773
3.616,0.3706088452112859,0.3379446220348994
3.62,0.38489960284420266,0.3585163533189071
3.624,0.38604789476729495,0.3698640449852837
3.628,0.37902268968374986,0.3713680050280672
3.632,0.3695649479835399,0.3630833205288646
3.636,0.3597681857258366,0.34719430177834587
3.64,0.34655947606903115,0.32712939819105924
3.644,0.32449698963723717,0.3050331981568517
3.648,0.29086596180905766,0.2808234239160974
3.652,0.24821724429679026,0.2528146518432466
3.656,0.2018900851152039,0.21898744267408143
3.66,0.1561501722631058,0.17851337164206282
3.664,0.11418193728973769,0.13316741823578315
3.668,0.07984276352516928,0.08817710389854416
3.672,0.05626734989635862,0.050703193625486476
3.676,0.0438617214887731,0.02568449423250252
3.68,0.040571003768515634,0.012989605115279357
3.684,0.04271035023318803,0.008390916825015582
3.688,0.04638034185339923,0.006382264477829747
3.692,0.049785774220200585,0.00346244516486105
3.696,0.0546298658447375,0.0010225485374821819
3.7,0.0650594535074529,0.004999829622703178
3.704,0.08465440632857524,0.021664702220682175
3.708,0.1139982676336837,0.05342407989291642
3.712,0.15053833418290585,0.09762676432728123
3.716,0.1896549070921989,0.14744865189563927
3.72,0.2254105967781772,0.19402993154865356
3.724,0.25147254601236235,0.22938398117547343
3.728,0.2630218205355441,0.24876986485827435
3.732,0.2592434826117418,0.2522355531940481
3.736,0.24445613605327576,0.24416310275754194
3.74,0.22573632831267965,0.23022240756533408
3.744,0.20907233162288152,0.21446181683701515
3.748,0.19772002804326827,0.19838769021159441
3.7520000000000002,0.1931797344649815,0.18201066768493623
3.7560000000000002,0.19652809948039485,0.16650055952021847
3.7600000000000002,0.20754202693855772,0.15597884874612533
3.7640000000000002,0.2227527319927214,0.15521086530981099
3.7680000000000002,0.23587540910611016,0.1648518751338255
3.7720000000000002,0.2410199493760008,0.17992397986473563
3.7760000000000002,0.23621218540960665,0.19291366983921687
3.7800000000000002,0.22443745635280887,0.19823973692651764
3.7840000000000003,0.21093372161868107,0.19539171901559782
3.7880000000000003,0.19941669072800838,0.18820267738959773
3.7920000000000003,0.1910210167909614,0.180606264086131
3.7960000000000003,0.1851139935444741,0.17414998792030723
3.8000000000000003,0.18026937832575496,0.1693660130842265
3.8040000000000003,0.17589768979286857,0.16751520926660857
3.8080000000000003,0.17316648860091277,0.16948850010476768
3.8120000000000003,0.173313219526966,0.17328347062199967
3.8160000000000003,0.17497026677276573,0.1752100580831768
3.8200000000000003,0.1749361795124451,0.17388786207105866
3.8240000000000003,0.17236415958012374,0.17078750565984802
3.8280000000000003,0.16979790511422466,0.1679087853553125
3.8320000000000003,0.17003665535456491,0.16640762923758268
3.8360000000000003,0.17422880567502053,0.1662994405228393
3.84,0.1818759631090323,0.16680574809849502
3.844,0.1908648720541788,0.16674881394935892
3.848,0.1980474250880324,0.1650934570256184
3.852,0.20105013490542611,0.16244524754211165
3.856,0.20000008916603673,0.16092426091771617
3.86,0.19699600769463133,0.16113188798376998
3.864,0.19391925044213254,0.16060902916584952
3.868,0.1911450672175401,0.15669550750998407
3.872,0.1882487929014629,0.15033554952322192
3.876,0.18550638339548486,0.1455356637337517
3.88,0.18362481662619512,0.1450091451056208
3.884,0.18224075279390872,0.14792354877272262
3.888,0.18055517703622637,0.1519555141492508
3.892,0.17884506347117135,0.1559237311147288
3.896,0.17792085635224275,0.16031687569612862
3.9,0.1780286939211866,0.1658375144108153
3.904,0.17866273058939797,0.17147599771038124
3.908,0.17914194886942836,0.17485110560606643
3.912,0.17963690707469304,0.17447287241529508
3.916,0.18137306080706694,0.1708188421608674
3.92,0.18530542403615002,0.16510035523377597
3.924,0.19066892827710213,0.1580557993153593
3.928,0.19591330149720587,0.1512478976520133
3.932,0.20055544706651585,0.1477852571573559
3.936,0.2039227401035666,0.14966622035357124
3.94,0.2037823610623155,0.1557921557302675
3.944,0.198999663545111,0.16318504416019453
3.948,0.19160790743418477,0.16879713467161062
3.952,0.18495285042185072,0.17085132041159978
3.956,0.18139501180958972,0.17004948048202673
3.96,0.1812758029909307,0.16871596496224206
3.964,0.18288988867265843,0.1681422972162283
3.968,0.18362919924180665,0.16781102689261296
3.972,0.18161641837945197,0.16690689981382678
3.976,0.17767989017393893,0.16580714320776968
3.98,0.17517766126407852,0.16604574786135173
3.984,0.17606668557296556,0.16881883450914925
3.988,0.17927458129037066,0.17408472388363516
3.992,0.18379031514747024,0.18034925396540147
3.996,0.19014170731728974,0.18447802576675199
4.0,0.19835493786756242,0.18332976182622907
4.0040000000000004,0.20614688966995387,0.17624694461640833
4.008,0.20915650602924352,0.16527443797281682
4.0120000000000005,0.20378327517447592,0.1538334244674331
4.016,0.19105752718280833,0.14592636959297134
4.0200000000000005,0.1767769908326018,0.1447823552128953
4.024,0.16770214729783284,0.15052888635241413
4.0280000000000005,0.16823606421981196,0.15997455169934938
4.032,0.1786386833668292,0.16927165124964927
4.0360000000000005,0.19473611437465843,0.17642935257291437
4.04,0.20998748268868273,0.18177901561422272
4.0440000000000005,0.21872892051470139,0.18641034880112883
4.048,0.21868582111059753,0.19044249666214275
4.0520000000000005,0.21109001117687187,0.19303950961375582
4.056,0.19953700123375806,0.19248970783657948
4.0600000000000005,0.1894949114530602,0.1863662473157821
4.064,0.18611108083994865,0.17451270819361553
4.0680000000000005,0.19075863135024096,0.16154534419643451
4.072,0.20031274858176018,0.15400438660837223
4.0760000000000005,0.20901627520105204,0.15490888553572435
4.08,0.21064232046206777,0.16114382344367773
4.0840000000000005,0.19977354355621402,0.16519360725197596
4.088,0.1742710033638044,0.15929453281937422
4.0920000000000005,0.1390176280636075,0.13993423740679511
4.096,0.10414602828174657,0.11066625006569142
4.1,0.07883167939297975,0.08054145705161186
4.104,0.06932779961462154,0.05953318744425551
4.108,0.07956932389891525,0.0553306219896037
4.112,0.10982675046632773,0.07198442029945529
4.116,0.15579963714030298,0.1090365413351373
4.12,0.20964663671921469,0.16148232137393181
4.124,0.26231830846175863,0.2205389682281056
4.128,0.3061086069657515,0.27469646469274456
4.132,0.3353460321375479,0.3118140130850846
4.136,0.34534315878163313,0.3226423814522803
4.14,0.33200237847857395,0.30400825299792156
4.144,0.2939187209760292,0.2600642060514897
4.148,0.23612903522758355,0.2008979316516688
4.152,0.1705564840064162,0.13902060110993641
4.156,0.110781170545863,0.08612523150784845
4.16,0.06702659935423116,0.05066486740514464
4.164,0.045944576627850786,0.03619996301747075
4.168,0.05136547689050941,0.04233666832903871
4.172,0.0821194105755707,0.06674074439571553
4.176,0.1299217267461179,0.10486128100919512
4.18,0.1817428665680565,0.14891791517225905
4.184,0.22541127187211307,0.18977575096618593
4.188,0.2534394503263273,0.2211458737718044
4.192,0.26350021913628097,0.2414205645341283
4.196,0.2578887857772454,0.25117645302552827
4.2,0.2425781851994373,0.250619038847139
4.204,0.22504710664018135,0.24005196694876596
4.208,0.21157210144018013,0.22191520502434559
4.212,0.20578237215555273,0.2024167808386832
4.216,0.20915780864122335,0.1899242977224347
4.22,0.22171796578231429,0.19000687786977877
4.224,0.24157761600222338,0.20307514085340328
4.228,0.2649045426591068,0.2269125829560541
4.232,0.2878199754002424,0.2585633655617898
4.236,0.3066234984563567,0.29104412223837217
4.24,0.31192020397035436,0.30795535771525717
4.244,0.2829626731129893,0.28357897448644676
4.248,0.19417344639617928,0.19179994492667385
4.252,0.03504649913230784,0.0230365145628193
4.256,-0.16830877480239848,-0.1947338774567372
4.26,-0.34679100927477957,-0.3875293570612034
4.264,-0.41029086625169287,-0.4597298997368112
4.268,-0.29368504564950737,-0.34401613021726485
4.272,0.0004790369815401707,-0.04315718770606558
4.276,0.39234092253376174,0.36157658117217917
4.28,0.754043153241307,0.7379596460541262
4.284,0.96034458254988,0.9535647675267347
4.288,0.9379868327786314,0.9286088613596766
4.292,0.695457902835561,0.6706127603083012
4.296,0.3201996025633964,0.27418647316291733
4.3,-0.05689453799200406,-0.11908867750520757
4.304,-0.3138131399476609,-0.3807601773263156
4.308,-0.38429994800936884,-0.44510447013050336
4.312,-0.280778067384187,-0.3290816097447401
4.316,-0.08069259400710682,-0.11471771491312188
4.32,0.12158808694189394,0.10010957939697307
4.324,0.2639912572848524,0.2508339227261047
4.328,0.3310255529630479,0.3218317220134961
4.332,0.33881656898428303,0.3308063264047485
4.336,0.3145696270382279,0.3058030869673314
4.34,0.28108025749708365,0.2706025519950699
4.344,0.2519202829562184,0.2408926319799123
4.348,0.2341498611745998,0.22488422034177158
4.352,0.22977945481530537,0.22389289412652635
4.356,0.2362783704213276,0.2337749922422736
4.36,0.24818298509745218,0.2473908080848899
4.364,0.25927218393267415,0.25731688524423313
4.368,0.2653492818819003,0.2592992288902134
4.372,0.26586302447355936,0.2543340051704226
4.376,0.2632791515776034,0.24636996370919162
4.38,0.2601351454360108,0.2383259614838784
4.384,0.2549961220363268,0.2297430301612713
4.388,0.24227068647944705,0.21692546338886864
4.392,0.21787681137108894,0.1961740297017891
4.396,0.184284146908394,0.16670211254678158
4.4,0.14859664345783674,0.1305681886880674
4.404,0.11654408559026086,0.09223102515788817
4.408,0.08930545456967054,0.05757786192427883
4.412,0.06530172573469106,0.030712625906827773
4.416,0.0436452671473857,0.011852890135878758
4.42,0.025657790305049444,-0.0010955096745922654
4.424,0.014534166544249327,-0.009803098045707892
4.428,0.01454366998684442,-0.01400040750053233
4.432,0.028824507329676896,-0.011305826263759644
4.436,0.056021039439588804,0.0013580087397770946
4.44,0.0896993272057911,0.024870941038910077
4.444,0.12217708863406718,0.056488855382595515
4.448,0.1491770260350489,0.09220595976073986
4.452,0.17110463489833339,0.1300044751846534
4.456,0.19168178566938887,0.17037067262853856
4.46,0.21642898877094097,0.21378174759806656
4.464,0.24938982636154816,0.25790196778663055
4.468,0.28894265674380804,0.29854892209800243
4.472,0.32818948795881697,0.33290825079605635
4.476,0.3596637424869136,0.35974273315213434
4.48,0.3788272509969144,0.3776334487777142
4.484,0.38485360242268785,0.38498960057999687
4.488,0.3800367172379553,0.38129592580702565
4.492,0.3678032528602686,0.3678190385079585
4.496,0.3506600034529066,0.3469641472929963
4.5,0.3295047458428293,0.320666126050162
4.5040000000000004,0.3033905497388312,0.28982768246867563
4.508,0.27082405009889077,0.25514887694425226
4.5120000000000005,0.23303903432324735,0.2172897848903852
4.516,0.1947085464996381,0.17647484257268586
4.5200000000000005,0.16016861919336312,0.13349847731795728
4.524,0.13021762213602806,0.09089487066516178
4.5280000000000005,0.1034932758135716,0.05203068506756958
4.532,0.07943854831751929,0.019897735164647434
4.5360000000000005,0.05900634189956433,-0.0029183131164947085
4.54,0.04352973461746479,-0.015086213914281554
4.5440000000000005,0.033344133657905006,-0.01769981162348644
4.548,0.027796343423792003,-0.012972121670737469
4.5520000000000005,0.027539818587198006,-0.001981986053975704
4.556,0.03605998083038142,0.01579776285575263
4.5600000000000005,0.05675544591688397,0.041988355927507826
4.564,0.08860549916110316,0.07776463970642422
4.5680000000000005,0.12662426071018396,0.12099343039977284
4.572,0.1658412823352582,0.165241480115756
4.5760000000000005,0.2023073165052547,0.20234824115066563
4.58,0.23129692935240542,0.2260384811872005
4.5840000000000005,0.24849700207800862,0.23407121561445687
4.588,0.2536776045432567,0.2287016356718825
4.5920000000000005,0.2510642398302201,0.2154323630899626
4.596,0.24586214833370867,0.20025066150322046
4.6000000000000005,0.2413177862911018,0.1875003075676216
4.604,0.23824923887860305,0.17952443037229382
4.6080000000000005,0.23574315998283635,0.1772757646684171
4.612,0.23235692908975514,0.1806991625513179
4.616,0.22715889087696994,0.18822929500040808
4.62,0.2195994454304555,0.1968524321447911
4.624,0.2095992830448281,0.20356778190489377
4.628,0.19863015280327967,0.20690085414150494
4.632,0.18937719174008372,0.20694550748626073
4.636,0.18369871981417685,0.20391410157118717
4.64,0.18185138977980797,0.19750538449266553
4.644,0.18350209162722275,0.1880140193858062
4.648,0.18843889023990612,0.17734001259606247
4.652,0.1961548262378261,0.16860804460088485
4.656,0.20474229719623738,0.16424731622137712
4.66,0.20996138543135268,0.16386533356415933
4.664,0.20724530812365027,0.16428206952530156
4.668,0.19624737082644517,0.16273711794682866
4.672,0.18173325060485745,0.1601810566344286
4.676,0.1701257096201847,0.15976647109408448
4.68,0.1658909442709373,0.16298313493724925
4.684,0.16914166561871324,0.16869548509900634
4.688,0.17646535459628643,0.17390609744516095
4.692,0.18425552692882174,0.17558436566162983
4.696,0.18999349630124973,0.17333912779523808
4.7,0.19181402304135675,0.16896230258956635
4.704,0.1897752332097602,0.16391961121444032
4.708,0.186708916554716,0.15906430121548776
4.712,0.18497684550937188,0.15494544090454188
4.716,0.1837597856248463,0.15124699148158705
4.72,0.18142105255111085,0.14786602855795272
4.724,0.1780739461362295,0.1463815821414829
4.728,0.17519974342495948,0.14807579143762695
4.732,0.1747080194114765,0.15117809348079847
4.736,0.17773578882889818,0.15237796368124124
4.74,0.183459310369396,0.15045159185215962
4.744,0.18956671138977232,0.14718484146559008
4.748,0.1937472157513509,0.14534335697843037
4.752,0.195002886962089,0.1467737815428909
4.756,0.19399098976922846,0.15213244888628719
4.76,0.19194956362696902,0.16060697304265315
4.764,0.18990707513484684,0.16942221511231814
4.768,0.18838383485380783,0.17494465826541816
4.772,0.18679447867823384,0.17544570409379823
4.776,0.18478296290844476,0.17258057287380368
4.78,0.18411190512871634,0.16909857747216583
4.784,0.1867044051863045,0.1662608907142673
4.788,0.1914973227924066,0.1646138708705498
4.792,0.1950049754542893,0.16499594234338844
4.796,0.19433997681066995,0.1677131771473075
4.8,0.18948912582682453,0.17182310714902327
4.804,0.183425088880655,0.17518866482137363
4.808,0.17958924365989737,0.17567058170980698
4.812,0.17920052590436342,0.17300042232481583
4.816,0.18137539395944335,0.16875192943951678
4.82,0.1844450583230115,0.16439427442458365
4.824,0.18664103364670748,0.16051443376678698
4.828,0.18702050923252522,0.15755799511840873
4.832,0.18616941685609034,0.15600996804381584
4.836,0.1854208314144612,0.1562953751685776
4.84,0.1854962001379279,0.1587749008462851
4.844,0.1865484872264358,0.1631051584927039
4.848,0.18910103636354747,0.16835055102991126
4.852,0.1936693661272697,0.1738014595016666
4.856,0.19886458312349076,0.1782357235309151
4.86,0.20041947358882095,0.17969888893503017
4.864,0.19413088077470753,0.17792656566266785
4.868,0.18097402065764157,0.17501713512385386
4.872,0.16794828576683063,0.17259678027323422
4.876,0.16285371581846575,0.17054989377812513
4.88,0.16881001575847843,0.1682720207335371
4.884,0.18317219042265998,0.1651104160514314
4.888,0.1996972426118906,0.16086318604909922
4.892,0.21177924082515664,0.15690384225415177
4.896,0.21524244962071748,0.15533774096370245
4.9,0.21007045944960168,0.15717963030753346
4.904,0.2010587611116752,0.1622113735444055
4.908,0.1951020896819966,0.16933649283416163
4.912,0.1958552841483978,0.17588972601363273
4.916,0.20198693435880521,0.1785500469916388
4.92,0.2105810239031376,0.17709738543305908
4.924,0.21976490580000996,0.17580498949482193
4.928,0.22752312238050187,0.17940677259814963
4.932,0.23076193003484846,0.18825695352771787
4.936,0.22634339649937352,0.19736347928227915
4.94,0.21125859388749202,0.19862368569041222
4.944,0.18335930415103618,0.18452007506459123
4.948,0.1447762305372613,0.15253500957519472
4.952,0.10365400582238493,0.10773405497363164
4.956,0.0711430464632099,0.06213398117689195
4.96,0.056239582065643834,0.03081417488409044
4.964,0.061932991388000236,0.02464736212066776
4.968,0.08590129121962331,0.04535516793951788
4.972,0.12418881798306969,0.08790849377855547
4.976,0.1722383573791746,0.1450169848067855
4.98,0.2237747839970221,0.2083109784263648
4.984,0.2710119031284761,0.26792674622646895
4.988,0.3059190695146108,0.31358362411152796
4.992,0.32206397639463447,0.33718035997728046
4.996,0.3167986716005291,0.3341993832023411
5.0,0.2921750680812858,0.3036401185172146
5.0040000000000004,0.2536422096790263,0.24921577727322552
5.008,0.20769772850443236,0.18098157376070567
5.0120000000000005,0.1608639952181472,0.11378398181679605
5.016,0.12004448401472878,0.06240477260424471
5.0200000000000005,0.091914036524263,0.036413089972820334
5.024,0.08143675301586928,0.03738155261415521
5.0280000000000005,0.09091641746256607,0.05983542362058514
5.032,0.11840534364635036,0.09485124244013243
5.0360000000000005,0.15606309651515904,0.13302110716087023
5.04,0.19248885978457375,0.1660333010878301
5.0440000000000005,0.21863086218047822,0.18875682261685234
5.048,0.23175063987528732,0.20053014902241473
5.0520000000000005,0.23467572739454456,0.2038988249553213
5.056,0.23231522859383302,0.20247217764571301
5.0600000000000005,0.228722402461222,0.1991353186793725
5.064,0.2264603846642428,0.19592073244380726
5.0680000000000005,0.22705759266106607,0.19540057388381205
5.072,0.23089511007466434,0.19971039295958937
5.0760000000000005,0.23724048436009637,0.2082930122639881
5.08,0.24543253087041483,0.21941863251243987
5.0840000000000005,0.2569007925555564,0.23345130452008522
5.088,0.27521205628541323,0.25272542267450704
5.0920000000000005,0.3008698282770752,0.2771952795117236
5.096,0.3239294598950726,0.29815316968713046
5.1000000000000005,0.32129522224294904,0.2943120280302223
5.104,0.2628739202047783,0.2355998311617642
5.1080000000000005,0.1274421253825735,0.0992561011381159
5.112,-0.07494143972065326,-0.10414366669062136
5.1160000000000005,-0.2862458373670287,-0.3131472594176016
5.12,-0.41220416134188553,-0.4313726104958725
5.124,-0.3684214252151571,-0.3764057988906746
5.128,-0.13067016538164067,-0.12851335854265444
5.132,0.2441080956165429,0.25143661543626794
5.136,0.6355886904091645,0.6416058261810904
5.14,0.9072780846441693,0.906398061193044
5.144,0.961977568397363,0.9511005715234195
5.148,0.781339014019186,0.7603078219599613
5.152,0.4323306599102994,0.40345219713361025
5.156,0.03828748170035223,0.005551043613498452
5.16,-0.27112031679835735,-0.3029856762231554
5.164,-0.40948058682689803,-0.43604940953496174
5.168,-0.36365586344927936,-0.3817858289675602
5.172,-0.1903823111144195,-0.1991753516854332
5.176,0.021206510612667318,0.019553745800165556
5.18,0.19711829374940426,0.19773357592394047
5.184,0.3035737867539554,0.30177603657456076
5.188,0.3429209320354911,0.3368833061416039
5.192,0.3370480832778684,0.32626732997025765
5.196,0.31146060255933206,0.29341102500822425
5.2,0.28527682042222025,0.25537041934840743
5.204,0.2683721718026366,0.2231780936784027
5.208,0.26257815735573553,0.20333913231584066
5.212,0.264694961663398,0.198137563360808
5.216,0.2701318606666352,0.20520215689450394
5.22,0.27489968098541295,0.2186610923804828
5.224,0.27657308790928137,0.23286505818316572
5.228,0.27578554590388316,0.2455046732503663
5.232,0.27576075449958504,0.25676741734257336
5.236,0.27816932869536126,0.26598673799938655
5.24,0.27915362123347043,0.26943635224473383
5.244,0.2707445707187275,0.26104968187740796
5.248,0.24762331688141437,0.2360979100233762
5.252,0.21162547585269098,0.19491129906237536
5.256,0.16882456298488324,0.1435598532158473
5.26,0.12489439512189593,0.09171968916111561
5.264,0.08399637285197126,0.04837864271078063
5.268,0.049035697206129214,0.017785914692000082
5.272,0.021965154289287137,-0.001260293086404296
5.276,0.00480591419423515,-0.01340142254144705
5.28,-0.0002699378236019623,-0.023250404679113768
5.284,0.006779898696519737,-0.031160428236304383
5.288,0.022561453063726145,-0.03160343215559225
5.292,0.042945162789415514,-0.01713214924338291
5.296,0.06589651603958346,0.015357999096633934
5.3,0.09087483351550563,0.06162755190969382
5.304,0.11733349018354189,0.11200570036377044
5.308,0.14510120502183277,0.1570315175816448
5.312,0.17529827202724557,0.19337799754898932
5.316,0.20893064199761224,0.22409308790909832
5.32,0.24437945147514495,0.25306788322042717
5.324,0.2777577745832127,0.28174062146974754
5.328,0.30633161618123483,0.31002318726795064
5.332,0.33102692328619865,0.3367998423288312
5.336,0.3547530326452686,0.3593343249329899
5.34,0.37806083668720314,0.373567875355723
5.344,0.39687184336807757,0.3762123524214014
5.348,0.4046524630759296,0.36716488721155205
5.352,0.3968654072970885,0.3497340231302297
5.356,0.37367116652368915,0.3281049178188762
5.36,0.33908934665756174,0.30367221911572595
5.364,0.2982392414072932,0.27433899496530123
5.368,0.25528974819339667,0.23840817701067651
5.372,0.21298713086363263,0.19787617200055418
5.376,0.17269879555859924,0.15681409783298328
5.38,0.13495855047427052,0.11746362107339503
5.384,0.10098422342574298,0.07919906801327192
5.388,0.07307332648569154,0.04141072773373855
5.392,0.05284187251055994,0.005892904906720231
5.396,0.03997843383734567,-0.023811580525833764
5.4,0.03289187869311738,-0.043348588121455145
5.404,0.030044497529925218,-0.047985412561377894
5.408,0.031510746903212095,-0.034911105875035986
5.412,0.039480150174688644,-0.006239144187296541
5.416,0.055847659673092354,0.031449083322716787
5.42,0.07970130126109232,0.07133965260371755
5.424,0.10856550650081775,0.11041354412037552
5.428,0.14081757632639125,0.14921409315519596
5.432,0.17463552280237504,0.18690494106288846
5.436,0.20587815961196831,0.21824541894409943
5.44,0.2299896596787776,0.23731657285843144
5.444,0.24501171958995926,0.24214002257439438
5.448,0.2511583067011205,0.23524925929296403
5.452,0.24945016533346243,0.2221320585295643
5.456,0.24190715809698582,0.20901208670802607
5.46,0.23182789191431152,0.20059997408193042
5.464,0.22291749051018606,0.19876129155226452
5.468,0.21776279088724748,0.20221593711698138
5.472,0.21664138891622065,0.20747946342800572
5.476,0.21768314837129266,0.21079097754656861
5.48,0.21864338404839878,0.20975985992262558
5.484,0.21827106225365323,0.20412844813198983
5.488,0.21631634645926678,0.19558096396689884
5.492,0.2133991264238082,0.1865073839147564
5.496,0.210076776893366,0.1784193649328918
5.5,0.20595535086594352,0.1716567904254438
5.5040000000000004,0.20118965895732766,0.16612150820770166
5.508,0.1976547555392716,0.1609292870770691
5.5120000000000005,0.19681349915311985,0.154662013337592
5.516,0.19746418882105732,0.14759239961131954
5.5200000000000005,0.19704957221630104,0.14202590469336984
5.524,0.19459547700909385,0.13977501218677402
5.5280000000000005,0.191362185477711,0.14082093900256676
5.532,0.18856724483727882,0.14444518957462882
5.5360000000000005,0.18512816424724443,0.14994993708190218
5.54,0.17869764914723452,0.15610663420911663
5.5440000000000005,0.16889521629811566,0.16130086881699945
5.548,0.15859289971885282,0.1647015847566422
5.5520000000000005,0.15211452010573057,0.16686727903499277
5.556,0.15220588044716088,0.16873749646843184
5.5600000000000005,0.15793796392533377,0.17029061599468331
5.564,0.1658487705340812,0.17078582801482
5.5680000000000005,0.17316562341210506,0.17018046444636736
5.572,0.17891059365296735,0.16972529504050282
5.5760000000000005,0.1831486139797811,0.17075187046035367
5.58,0.1868832202991635,0.17323325070492634
5.5840000000000005,0.19154956091173747,0.17585821246310696
5.588,0.19758666485437604,0.17730144660938119
5.5920000000000005,0.20397132338160984,0.1774600672426383
5.596,0.2091256093808953,0.17711518259579417
5.6000000000000005,0.21162741446249633,0.1760926804212397
5.604,0.20996054105594064,0.1726687682575494
5.6080000000000005,0.20342970666202365,0.1652449351253018
5.612,0.19448250573719728,0.154230612496415
5.6160000000000005,0.18779404982503878,0.14272892530832348
5.62,0.18583395497475985,0.13545031077956993
5.6240000000000006,0.18694343657821366,0.13590915007017457
5.628,0.18738474860672016,0.14387369937632322
5.632,0.18423903808780517,0.15516801787763002
5.636,0.17762123387383877,0.16429649170802074
5.64,0.1706648533798547,0.1682208356370336
5.644,0.16712650955716657,0.16794801206034626
5.648,0.16905071186497023,0.16665380644062844
5.652,0.17581500466963873,0.1667264058227116
5.656,0.18486581379844247,0.16815847086535007
5.66,0.1934603491491831,0.1696150653926829
5.664,0.1996205503054187,0.1710965598901979
5.668,0.20177345191508533,0.17379750358836565
5.672,0.1987197377087926,0.17709987972896357
5.676,0.19179446406494827,0.17796101639551032
5.68,0.18597148370568606,0.1737878710983325
5.684,0.18595036951405608,0.16504011416506748
5.688,0.1921012816751082,0.15515442627167975
5.692,0.20070517685250344,0.14805235681022344
5.696,0.20616478276811168,0.14553562162184353
5.7,0.20381515600377242,0.1468275802957557
5.704,0.1924446300905962,0.14955674179093115
5.708,0.17525508675731327,0.1514531820779772
5.712,0.158798739749213,0.1523109029603278
5.716,0.14962383661849388,0.15400439623717066
5.72,0.1510534165786268,0.15809120518092423
5.724,0.16244729406273217,0.16400280604595796
5.728,0.17984789375046994,0.17037184072939549
5.732,0.19739639254101737,0.17685813418352847
5.736,0.20966373359267432,0.18351451719231493
5.74,0.21369587398736023,0.18989255110404368
5.744,0.21041730665998903,0.19532959836160435
5.748,0.20443423640394887,0.1989548399375891
5.752,0.20054036775170414,0.199473224631592
5.756,0.19973777148888083,0.19606412402118023
5.76,0.1994935543954175,0.18941042671323327
5.764,0.19757376408074978,0.18121461000568906
5.768,0.1943594660565584,0.17365680532019168
5.772,0.19176053665046755,0.1694851428181412
5.776,0.19182319320751562,0.17081496927704443
5.78,0.19627860517755336,0.17712376274474262
5.784,0.20553324121636662,0.18506546170793658
5.788,0.21739115985183788,0.1902082098367306
5.792,0.2263672888335999,0.18838819798223172
5.796,0.22450134224922547,0.17575502187995573
5.8,0.20528358811148117,0.14942989365752335
5.804,0.1688358589844019,0.11016372135017338
5.808,0.12339163506414752,0.06472024901810358
5.812,0.08147653487306239,0.025295099810259458
5.816,0.05473313080242015,0.0056505660707923955
5.82,0.0508313491796204,0.01461579682555203
5.824,0.0715851009932913,0.05104220743435439
5.828,0.11276513831070423,0.10599758185653285
5.832,0.1667652134327242,0.16907377285211433
5.836,0.22544358164020561,0.23071436317919014
5.84,0.28124880491721505,0.2818115596729365
5.844,0.3265184051911745,0.31604005763083776
5.848,0.3526365793660873,0.3314971927891823
5.852,0.352795833663315,0.3272830600541077
5.856,0.3258006089319738,0.30162147924010996
5.86,0.27584087886258124,0.2558500237206689
5.864,0.21153381461319265,0.19732337951839396
5.868,0.14635996548317265,0.13709898499643902
5.872,0.09496371949462112,0.08577546248959278
5.876,0.06645496720828103,0.05118872659335194
5.88,0.06257455376224419,0.03844108230908749
5.884,0.08016943585805003,0.0496119466800935
5.888,0.11295851380476396,0.08146944224605979
5.892,0.1523842172777501,0.12373882027132077
5.896,0.18890219526504648,0.1619075561395784
5.9,0.2145412243377649,0.18467767145947112
5.904,0.2263885289102816,0.19052234070136076
5.908,0.22792477329789995,0.18726417995600175
5.912,0.2260730523084391,0.18527348648689812
5.916,0.22616472261593512,0.1904172928394754
5.92,0.22900659303422444,0.20176320517483415
5.924,0.23211936249271803,0.2143636267815856
5.928,0.23299058466871214,0.22359157528359375
5.932,0.23112808584056532,0.22769666405330358
5.936,0.22882591507103678,0.22864085953710522
5.94,0.2310476169753901,0.2318797960339416
5.944,0.2432927149607047,0.2436055413019036
5.948,0.2672762616712221,0.2659076156637359
5.952,0.295681956962097,0.29207398914936333
5.956,0.30871868287755655,0.3027120124614473
5.96,0.27672902559039025,0.26691836782522604
5.964,0.17260820764842433,0.15593922125718462
5.968,-0.005929383985583181,-0.03229211904429463
5.972,-0.21538589679329656,-0.25276008076832446
5.976,-0.36957722437339935,-0.41717279902756665
5.98,-0.37739121522205876,-0.43127157221558576
5.984,-0.19441288938677692,-0.2474074618731098
5.988,0.14603339459604792,0.10242870556471773
5.992,0.5406708523479968,0.5123126856929765
5.996,0.8559828656427224,0.8420457151147518
6.0,0.9804389170227057,0.9732748217707121
6.0040000000000004,0.8691875512293468,0.8582713764489012
6.008,0.5625839762204878,0.5393008339247645
6.0120000000000005,0.1692880143092692,0.13052475218571424
6.016,-0.17786846120678657,-0.22839699610317776
6.0200000000000005,-0.3740789801541712,-0.42774205740186566
6.024,-0.3817645492026691,-0.42926970550344
6.0280000000000005,-0.2391950894424597,-0.27450709294720743
6.032,-0.03240551067256303,-0.05471779487413575
6.0360000000000005,0.15427221321633922,0.14059483197185174
6.04,0.2752474961390474,0.26303337863600973
6.0440000000000005,0.3272344248576271,0.31019161025800845
6.048,0.33089896269851105,0.3058935580813458
6.0520000000000005,0.31152781106912,0.2790944852105057
6.056,0.2877228243773102,0.25234743205739707
6.0600000000000005,0.268546687460526,0.23749112442209763
6.064,0.2562264130368157,0.23576344680796124
6.0680000000000005,0.24953595872460554,0.24197629408214527
6.072,0.24600402788676856,0.24973276795385124
6.0760000000000005,0.24437722573505072,0.25440812491033427
6.08,0.2456066219964117,0.2542436579943739
6.0840000000000005,0.2509924252023894,0.2510767780552112
6.088,0.259765381547151,0.24916420152116836
6.0920000000000005,0.26796881748855195,0.25091321552666757
6.096,0.2700231599893308,0.2538889392339543
6.1000000000000005,0.26168211440693656,0.25244360126760723
6.104,0.24129510102046314,0.24114011635279375
6.1080000000000005,0.2101248391171966,0.21692891372811518
6.112,0.17232793399929625,0.18025730654361505
6.1160000000000005,0.13305977817565218,0.1350945324382884
6.12,0.09654929636793574,0.08718916711994695
6.1240000000000006,0.06647034285265829,0.04218440140687485
6.128,0.04637836656464622,0.0047161480167705605
6.132000000000001,0.03773676982780838,-0.022595539457749947
6.136,0.037769060248528996,-0.03917160916258877
6.140000000000001,0.040916022724554635,-0.04486724193577196
6.144,0.043427412523138864,-0.03961450207779249
6.148,0.04641982893966223,-0.024099500685733632
6.152,0.05411403254615599,0.001002925554528078
6.156,0.06995147347304109,0.035150137057854636
6.16,0.09527654520630069,0.07600236846905628
6.164,0.13023525984016193,0.11894958964343694
6.168,0.1736332673828782,0.15989521857925815
6.172,0.2214643137517558,0.19787234730062275
6.176,0.26708803240535195,0.2340303569162847
6.18,0.3048616479952153,0.26878143878979954
6.184,0.3337620641611174,0.30117242836978075
6.188,0.3563353263875624,0.3301642897950723
6.192,0.37450592248519277,0.354235983884843
6.196,0.3874181279363691,0.37027794258103297
6.2,0.39278517164967175,0.37549124530848554
6.204,0.38883743056844544,0.3700695736415722
6.208,0.37453149306976785,0.35660349426359894
6.212,0.3494411463780669,0.33786420916252347
6.216,0.314626841772911,0.31538669245406115
6.22,0.27289202050497785,0.28860902653918385
6.224,0.22811772343635184,0.2559818525947617
6.228,0.18448941952460585,0.2180135981383191
6.232,0.14552128568347045,0.17762042878515572
6.236,0.11345466785336522,0.1374988486121682
6.24,0.08859766608707065,0.09920646274536105
6.244,0.06895584236664609,0.06370247388889183
6.248,0.052303456502935664,0.031497602330746055
6.252,0.03846487597778436,0.0036324581016522473
6.256,0.028561717227853167,-0.01751926243799551
6.26,0.023628055983680785,-0.028811695403267112
6.264,0.025268173812823758,-0.027146804614188613
6.268,0.03638744430170027,-0.010785922525692437
6.272,0.059618418402117346,0.018978418341267567
6.276,0.09432913748286986,0.05737377298832547
6.28,0.135190535116803,0.09801772775127171
6.284,0.17463980825829406,0.13600099785868291
6.288,0.2070293264454519,0.1686177228908663
6.292,0.22990292830090175,0.1937443012359339
6.296,0.2431295967650804,0.2097792449928173
6.3,0.24904002475925058,0.2171286158256276
6.304,0.25159979685846,0.21835827153790865
6.308,0.253181409203753,0.21697691456178791
6.312,0.25343711372292077,0.2155687366802892
6.316,0.25140925100494327,0.21376660557696048
6.32,0.24674003510106357,0.20903817558960447
6.324,0.23932828446351362,0.2003334285350178
6.328,0.2291727285310894,0.18966590393688332
6.332,0.2168747949749772,0.18031943909132897
6.336,0.2042644681614838,0.17465048591106913
6.34,0.19417251642158329,0.17303231070859093
6.344,0.18913292473139487,0.17387033107420535
6.348,0.18951368655748513,0.17477111938004986
6.352,0.1925005116760683,0.17469933381315395
6.356,0.19339841387817347,0.17501787271045122
6.36,0.18884767350102494,0.17746917895279113
6.364,0.1795350762696013,0.1814689674979748
6.368,0.17004127798326274,0.18460850435237997
6.372,0.16574284100734404,0.18515880285399877
6.376,0.16877788629785684,0.18290151679316868
6.38,0.17656095454505927,0.17884226193366493
6.384,0.18474859397905052,0.17490784629663425
6.388,0.19138000054893523,0.1725809468389934
6.392,0.19756406977278873,0.17129333436738015
6.396,0.20458056564899096,0.16888485894754823
6.4,0.21092327367724106,0.16399278992339372
6.404,0.21256919908252225,0.15716739495261844
6.408,0.20652288094951432,0.1500971652623908
6.412,0.19396852220413985,0.14500308620686386
6.416,0.1796044080819248,0.14363653618097283
6.42,0.16803302543212095,0.14632931107979363
6.424,0.16138068215117607,0.15285849756873593
6.428,0.1598596017439573,0.16274103682283747
6.432,0.16289332864866646,0.17347745518476088
6.436,0.16924479959529992,0.1806268170436125
6.44,0.1770038329087822,0.18116707283015354
6.444,0.183853080341438,0.17561009175259068
6.448,0.1873782580866521,0.1667179948704458
6.452,0.18677576155007158,0.15759844650805022
6.456,0.1846677657643785,0.15054850969964417
6.46,0.1850186188672538,0.14626799837244553
6.464,0.18939840106498518,0.14413007311950343
6.468,0.19625639696657604,0.14364563709629974
6.472,0.20254624766020268,0.1452143719750736
6.476,0.20533459913561614,0.14907985511647737
6.48,0.2031140921716219,0.1548603472836012
6.484,0.1971898417691489,0.16285516477002626
6.488,0.19135316514291234,0.1738093725682197
6.492,0.188684523621925,0.18614969747343846
6.496,0.18907358234122973,0.19540828456658943
6.5,0.19052845589656542,0.19759630942525064
6.5040000000000004,0.19150214177253178,0.19190579535098617
6.508,0.19124404145157725,0.1802102287582532
6.5120000000000005,0.18931362667808704,0.1655654000235811
6.516,0.18550055778831087,0.15127256835320768
6.5200000000000005,0.18009417203389244,0.14061230334528463
6.524,0.1747937522902243,0.13671847435587647
6.5280000000000005,0.17280940901492348,0.14098485336416866
6.532,0.17595322905665856,0.15108148488019646
6.5360000000000005,0.18188626452073908,0.16179645504285367
6.54,0.18615472901902996,0.16778858615700387
6.5440000000000005,0.18651585976718854,0.16597424521610438
6.548,0.18404198148170803,0.15784721635394283
6.5520000000000005,0.18097416198672334,0.14992409046583943
6.556,0.17923569860362143,0.14962964018914904
6.5600000000000005,0.18007275938659517,0.15969847050238495
6.564,0.1833568246808326,0.17615920441534527
6.5680000000000005,0.18779610008407865,0.19067076137390981
6.572,0.1918570740343275,0.1956217401982907
6.5760000000000005,0.19386053143073934,0.1891450782957873
6.58,0.1930323884368832,0.17609239110354125
6.5840000000000005,0.19131226122237366,0.1641431810921281
6.588,0.1917009657829858,0.15883826219297448
6.5920000000000005,0.19425431416709893,0.1611350457741041
6.596,0.19629601172874,0.16757113620211928
6.6000000000000005,0.19687117945444932,0.17255799514727133
6.604,0.19793958966621394,0.17233670320831473
6.6080000000000005,0.20071934817228132,0.16716461556909312
6.612,0.20350918381908456,0.15975656042778752
6.6160000000000005,0.20372446680381495,0.15326092734592134
6.62,0.20056813708392962,0.15064121110160422
6.6240000000000006,0.19538459171210087,0.1539346218978328
6.628,0.19084965387934028,0.16285137710446262
6.632000000000001,0.18982130328589708,0.17477858179034333
6.636,0.19345472950043296,0.18760444513604946
6.640000000000001,0.20060170242357067,0.20100113185586332
6.644,0.20890538326717745,0.21335642033215185
6.648000000000001,0.21524447690120607,0.2195443696088588
6.652,0.21568048001129636,0.21335449668981887
6.656000000000001,0.20601836179593858,0.19143123636353554
6.66,0.18322749034488894,0.15493133068961829
6.664,0.14819131321987977,0.10944718186118463
6.668,0.10760621563085393,0.06477828460890112
6.672,0.0720200807531961,0.033396238457481964
6.676,0.05164929042691102,0.025463640695670753
6.68,0.053395502077607127,0.04320859603264937
6.684,0.07985040827001066,0.08094670154354322
6.688,0.12881695796550408,0.1300625994278357
6.692,0.19258743704884385,0.182782791778201
6.696,0.2591919574484889,0.23297315011562758
6.7,0.3160269924093382,0.2755549256236698
6.704,0.3528264396404399,0.3055080326630091
6.708,0.36346943304778123,0.31769389467404086
6.712,0.3469449579428878,0.3077508150891055
6.716,0.3064075994348716,0.27399324660271396
6.72,0.2476702451725945,0.220298167935159
6.724,0.1793615765359129,0.1568339505088454
6.728,0.11380514811893505,0.09667859607555362
6.732,0.06514218406232253,0.05118131828659478
6.736,0.044556660086295885,0.0273787889772783
6.74,0.055966574884603215,0.02813851271551715
6.744,0.09374819931408496,0.05285076410020473
6.748,0.1439541426967983,0.09661610091265294
6.752,0.18967481079473836,0.1493016438130217
6.756,0.2182342636324055,0.19751904117441987
6.76,0.22716244753976933,0.22998099580732423
6.764,0.22392674633306697,0.24240095842582776
6.768,0.21815425316019232,0.23777228857205368
6.772,0.2148539452939533,0.22293622440372562
6.776,0.21433975090097968,0.2053487500422262
6.78,0.2152746016810474,0.19133908620807083
6.784,0.21738473186212226,0.18503933809037365
6.788,0.22233345253194714,0.18755940996705456
6.792,0.23263232007757062,0.1971217982004776
6.796,0.2506469998474956,0.21167039538863008
6.8,0.2776656004871221,0.23213910080810174
6.804,0.3114628320183026,0.26103707430175627
6.808,0.3427374020558658,0.29482849118042553
6.812,0.35280061072839564,0.31579972617395446
6.816,0.3160867432074508,0.2925545071218121
6.82,0.20945905004681564,0.19433157666415024
6.824,0.02864880811058912,0.014568007153542117
6.828,-0.1920518492327674,-0.20890858630775633
6.832,-0.37512284317085287,-0.3937724594346811
6.836,-0.4280446221504708,-0.44423192024982494
6.84,-0.2922103550273629,-0.30141739006044854
6.844,0.019833478452706776,0.018419619214466998
6.848,0.4207443917296627,0.4222287366871984
6.852,0.7792501406005057,0.7749933798965498
6.856,0.9705459664401141,0.9529185208328381
6.86,0.9254943112233713,0.8923927578941098
6.864,0.6594148133591748,0.6156795796031722
6.868,0.26743400540022333,0.22247262219656738
6.872,-0.1134570484265629,-0.15032900849241826
6.876,-0.35961891458183537,-0.3839277147596427
6.88,-0.40927584493778724,-0.42368589078353536
6.884,-0.28350969575838014,-0.2955586885498298
6.888,-0.06766479572385975,-0.0839700058342342
6.892,0.14000058679601546,0.11833550982980734
6.896,0.2778226260985668,0.2541070749353993
6.9,0.33506477392024503,0.31208815441967097
6.904,0.33489050741868187,0.31230431412013804
6.908,0.31021618825556474,0.2852837948864433
6.912,0.28646178082366314,0.2558105710274583
6.916,0.2741636482299552,0.23640436933602405
6.92,0.27069898752752386,0.22862761718098312
6.924,0.2677094668609059,0.22783529602240615
6.928,0.2588535463128394,0.22847107662874588
6.932,0.2438858488238087,0.2274511239562722
6.936,0.22835806082970334,0.22559658672439165
6.94,0.22011400525326708,0.22672910758113973
6.944,0.2244338432424997,0.23369924250413399
6.948,0.24021431541009153,0.24496723270407927
6.952,0.2598291549676266,0.25544337985590104
6.956,0.2730060644827592,0.2594229526465941
6.96,0.2711182925129749,0.2521843366582872
6.964,0.25022399572562204,0.2310366857296291
6.968,0.2134427479503116,0.19615056839365574
6.972,0.16930233650085103,0.14988448417845834
6.976,0.1260155546266697,0.09611077135188384
6.98,0.08802078938217539,0.04096098352695976
6.984,0.056956288946598876,-0.006636340118513773
6.988,0.03399030050706897,-0.03794969839970175
6.992,0.02017216417684442,-0.049511848224944255
6.996,0.014996861966909192,-0.04363731327009124
7.0,0.017080873147580666,-0.02501165531638805
7.0040000000000004,0.026686624732092046,0.001576926724895955
7.008,0.04534396264517215,0.03262996722123401
7.0120000000000005,0.07320209811947476,0.06631064088589622
7.016,0.10803601880275782,0.10088210366425887
7.0200000000000005,0.14556408507081864,0.1340458085049927
7.024,0.18084842980790006,0.16445731723389945
7.0280000000000005,0.21152179550275152,0.192964592629584
7.032,0.23916522497986237,0.22135333499907506
7.0360000000000005,0.2663141525768391,0.2499764137933329
7.04,0.29366740729041574,0.2780762950413831
7.0440000000000005,0.32033376266980373,0.3054918225334917
7.048,0.34441187284526253,0.3316839386670285
7.0520000000000005,0.36336143598960424,0.3541446618674928
7.056,0.37460333319869465,0.3691245194223154
7.0600000000000005,0.3757764040462257,0.3733209021091495
7.064,0.36586296397458806,0.3654602992452547
7.0680000000000005,0.3469399460428888,0.3472245563734191
7.072,0.3233994340084221,0.32151146202412484
7.0760000000000005,0.2984291887877315,0.28915250058874253
7.08,0.27197154221187403,0.2497295480593078
7.0840000000000005,0.24198852522305536,0.20556204473019157
7.088,0.20678270956216704,0.1613485220142703
7.0920000000000005,0.16666178547911858,0.12056328439829955
7.096,0.12495252744621821,0.08468207637927927
7.1000000000000005,0.08762583110432942,0.05417062611312917
7.104,0.06059656807863756,0.02886349040242875
7.1080000000000005,0.04628763811646408,0.008697367232848752
7.112,0.042048805792551436,-0.005760410559730755
7.1160000000000005,0.04235847566165529,-0.013365313601217732
7.12,0.04336004066635035,-0.012461277211083366
7.1240000000000006,0.045067752015372387,-0.0016285172228159839
7.128,0.050454866155473344,0.019223507799365658
7.132000000000001,0.06342500815857144,0.04851749810861916
7.136,0.08631500879367504,0.08408634119147318
7.140000000000001,0.11859995031602555,0.12431437914465993
7.144,0.15754427758118683,0.1667443015405985
7.148000000000001,0.19825697371278594,0.20544674425121
7.152,0.23301298053298014,0.2319247418953716
7.156000000000001,0.2539985358764063,0.24082077564487392
7.16,0.258931857493478,0.23440138457397564
7.164000000000001,0.252456807636829,0.22068935381206556
7.168,0.24166803712043206,0.208597147467543
7.172,0.2318632805686207,0.20395321171198222
7.176,0.2255929899653153,0.20661684753208887
7.18,0.22318376191382527,0.21146751500573258
7.184,0.2236640385297095,0.21369526072987677
7.188,0.22547874311854432,0.2122892918957313
7.192,0.22621675157148502,0.2087957028761731
7.196,0.22320540258105304,0.20402455769814853
7.2,0.21568819099114012,0.19645641483621623
7.204,0.2054140770379118,0.18450272676938106
7.208,0.19521563583469903,0.169684338355653
7.212,0.18748713494185631,0.15651914399207612
7.216,0.1830884706025664,0.14955758843634714
7.22,0.18186007082247002,0.14994167871846775
7.224,0.18371654608431087,0.1541973742212177
7.228,0.1879021193736945,0.15755866104339344
7.232,0.19194143741206116,0.15830704696781672
7.236,0.1928093227302481,0.1573332978514348
7.24,0.18975855076959558,0.1552057426974831
7.244,0.1852579432371113,0.15214903695033422
7.248,0.18221703163314595,0.14910975083703337
7.252,0.1812304866119887,0.14737832658448902
7.256,0.18122039976374893,0.14834821787863794
7.26,0.18135251831873123,0.15295266899558535
7.264,0.18134107771347074,0.1605942497842081
7.268,0.18104986515077526,0.16950863059421217
7.272,0.18061039242461008,0.17803735172833046
7.276,0.180202496768902,0.18478669523361257
7.28,0.17972221050755444,0.18737279719827704
7.284,0.17919865005890356,0.1828590266963639
7.288,0.17914001740377516,0.17120248506749935
7.292,0.1802638520607771,0.15686392171596109
7.296,0.18335671350083116,0.1458844453290693
7.3,0.1888684195276229,0.14187067369189732
7.304,0.19569952494299203,0.14484269402704775
7.308,0.2009623575526831,0.15274330481745957
7.312,0.20211970240765753,0.16249095993790696
7.316,0.19949360139270178,0.17073778548630414
7.32,0.1958361660215866,0.17529997642374506
7.324,0.1933867922039496,0.1755869778739374
7.328,0.19220046529440604,0.17239388714813497
7.332,0.19126615521512558,0.16740547187743648
7.336,0.19021997687818204,0.1620216926896001
7.34,0.18922001314038028,0.15754720956829993
7.344,0.187610249549085,0.15600377681425126
7.348,0.18388401519639808,0.15864482394196466
7.352,0.17719066008641549,0.1639267898895962
7.356,0.16854359773987304,0.1685290687263774
7.36,0.16112910484650222,0.1704795899515701
7.364,0.1592188015174376,0.17012361988521008
7.368,0.1650909938043894,0.16829855097994373
7.372,0.17690538361268793,0.16543355934899528
7.376,0.19001987580842727,0.1625984420883635
7.38,0.19989073289933046,0.16150630551755296
7.384,0.20459262470953,0.16277597719138415
7.388,0.2049411301633619,0.1651047898068756
7.392,0.20191243556722394,0.1663723590190307
7.396,0.19578685082249803,0.16549349019258908
7.4,0.1881339355038807,0.16354691217237072
7.404,0.1823144289298313,0.16315767767920386
7.408,0.18092809027886814,0.16636111016054822
7.412,0.18324409026277522,0.17258490460899556
7.416,0.1858758310638915,0.17828199712365556
7.42,0.1859816809625856,0.17897162225413354
7.424,0.18362011524894206,0.17342525689600286
7.428,0.18121480835639847,0.16542941232184383
7.432,0.18099296229830797,0.15992731737021493
7.436,0.183803331887338,0.1589595961420489
7.44,0.1900489546865427,0.16126392956199287
7.444,0.19964496875375182,0.16344613311171075
7.448,0.2104825283034344,0.16243003050067228
7.452,0.21836814172979735,0.1581041960741587
7.456,0.21970518301857478,0.1534763859797046
7.46,0.2140979429107137,0.15267413708755062
7.464,0.20435686990307844,0.15793760170924975
7.468,0.19460058454907836,0.16791109465028153
7.472,0.1879165398843985,0.17894954338527658
7.476,0.18480656325737277,0.18714175294191993
7.48,0.18342907012207466,0.189690465211384
7.484,0.18198301602662048,0.18599729985527214
7.488,0.1814320450337703,0.17801621453966265
7.492,0.1849912370604314,0.17004346370029144
7.496,0.1941481447541531,0.16774434530996563
7.5,0.20571850724028096,0.17475656013865892
7.5040000000000004,0.21346636231320537,0.18813736941054104
7.508,0.2120862569877151,0.1977928062042862
7.5120000000000005,0.19898005386069517,0.19161256246711367
7.516,0.17390663978424326,0.16307373943985115
7.5200000000000005,0.1399068454953507,0.11686367737822834
7.524,0.10482902546805195,0.06750152882711413
7.5280000000000005,0.07910075922321602,0.030899966807182322
7.532,0.07038513560317505,0.017502413364244074
7.5360000000000005,0.08092302639183058,0.03140882511914467
7.54,0.10885471473646735,0.07032219181648491
7.5440000000000005,0.14985015050125572,0.1258958755758126
7.548,0.19763492862972942,0.18790935682538046
7.5520000000000005,0.2448063764113304,0.24827796120373824
7.556,0.28470541798611504,0.3004250931078243
7.5600000000000005,0.3126744110269599,0.33733695578115674
7.564,0.32530633399611153,0.3525676740518011
7.5680000000000005,0.31986008687974277,0.3422273852957849
7.572,0.2956244652395268,0.3055851716593996
7.5760000000000005,0.2557114856108771,0.24649590373186303
7.58,0.20708340973422312,0.17517782805789972
7.5840000000000005,0.15811251759552358,0.10610816043955906
7.588,0.11567845128378829,0.05262229425928222
7.5920000000000005,0.08490113382042241,0.022812839597764256
7.596,0.07104013766983996,0.01849731521178044
7.6000000000000005,0.07851962824375125,0.03616014782498378
7.604,0.10580085620638524,0.06852059787614495
7.6080000000000005,0.14329280978313408,0.10610870588414967
7.612,0.17861570161728157,0.13971500477299426
7.6160000000000005,0.20393429068026303,0.16440460904654075
7.62,0.21862715288851087,0.18206693189079304
7.6240000000000006,0.22624518028876417,0.19804519945706223
7.628,0.23039270870541895,0.21395174300116038
7.632000000000001,0.233060849474926,0.22535692702649657
7.636,0.23412836518160618,0.2278671148867859
7.640000000000001,0.23215329148442865,0.2235896563984705
7.644,0.2276369532604161,0.21933057544788181
7.648000000000001,0.22486989998021323,0.22007542250504053
7.652,0.22916048024995472,0.22704707521495782
7.656000000000001,0.24347680231356317,0.24056294468551598
7.66,0.2681512124094376,0.2613008025508765
7.664000000000001,0.29976528962917626,0.2867918440923716
7.668,0.3263184669034751,0.30528135821247626
7.672000000000001,0.3242715282360493,0.29347755406620135
7.676,0.264401776774283,0.22332039716511298
7.68,0.12790629949104249,0.07761753920226178
7.684,-0.07109572588216817,-0.12786701892820806
7.688,-0.27044273178193134,-0.3287689234991269
7.692,-0.37593625731267766,-0.4293424486371229
7.696,-0.310497500360441,-0.35387110020517076
7.7,-0.06116507525565906,-0.09269884716812493
7.704,0.30752308003236517,0.2869525230986474
7.708,0.676180737391374,0.663311436310676
7.712,0.9165937393233345,0.9050962865991019
7.716,0.942201346239816,0.9242514640736956
7.72,0.7424256716699149,0.7132487424227876
7.724,0.3868299495267118,0.3484710352123863
7.728,-0.002157076742450803,-0.04168169591082349
7.732,-0.29720091160592066,-0.3291208923475927
7.736,-0.4164614637497259,-0.4364402164587502
7.74,-0.35394638157223157,-0.36349587132791694
7.744,-0.17271884100927182,-0.17692257010019719
7.748,0.036088527063015796,0.032087144864685335
7.752,0.20126967550027408,0.19453799932537885
7.756,0.2950041449494507,0.28530843144179063
7.76,0.3256847350478318,0.3147074829103984
7.764,0.3178624014480187,0.30752451914936096
7.768,0.2952179912380528,0.28674943603017233
7.772,0.272377856486127,0.2668751868472967
7.776,0.25563201618567866,0.25347446533552076
7.78,0.24746548734103424,0.24599895822070872
7.784,0.24844031508857833,0.24225901184099574
7.788,0.25583057211664273,0.2408358087160598
7.792,0.2639593799262838,0.24012191091765978
7.796,0.2680969857061586,0.2386171332175302
7.8,0.26749621793310685,0.23742215980892745
7.804,0.26450391180145894,0.23993868554701314
7.808,0.261785975995539,0.2479210586278453
7.812,0.25964280827638175,0.2575394836421734
7.816,0.25459784418944587,0.25913650428625035
7.82,0.24153471115187997,0.2429984639666456
7.824,0.2181063475966627,0.20668079486911983
7.828,0.18598287139837155,0.15603121686579646
7.832,0.148493768101297,0.10073134619752744
7.836,0.10901243807666905,0.05035034616648315
7.84,0.07143894595752442,0.011711434682475597
7.844,0.04083283637580948,-0.013128437843147323
7.848,0.021201670463070865,-0.025960843706777426
7.852,0.012849566155370251,-0.02924823348083827
7.856,0.014216135493011262,-0.024591850665555137
7.86,0.02470257584077218,-0.01315996392313401
7.864,0.0440846962975161,0.0037963790424744293
7.868,0.07064341633206395,0.02508599179312676
7.872,0.10140874285451695,0.05040275994690813
7.876,0.1340949028045324,0.08059321165868583
7.88,0.16730786343375592,0.11622369489536877
7.884,0.19967985582238312,0.15617485068256043
7.888,0.23002695907799375,0.19823743314842113
7.892,0.25767476197257677,0.24014714670388582
7.896,0.2833038224367521,0.28003724785929496
7.9,0.3090812429352916,0.3168731578184356
7.904,0.33571466862701316,0.3498201421150593
7.908,0.35975546982012907,0.376804937986297
7.912,0.375525437418859,0.39421824892846247
7.916,0.3796116132641092,0.39871875193724415
7.92,0.3729050285048674,0.38975361978839995
7.924,0.3585052869634391,0.3692553595187893
7.928,0.3378796448643073,0.33917299397679934
7.932,0.31048753748416913,0.301448042313714
7.936,0.27762191678089465,0.25949390070055345
7.94,0.24335553504763507,0.21735042581406505
7.944,0.21085462043651537,0.1774782151214025
7.948,0.17987018953688372,0.14008485621658306
7.952,0.14797950602144194,0.10477154051643423
7.956,0.11395484093587571,0.07221697317728171
7.96,0.0796165741756587,0.04322721580983724
7.964,0.04849846130600821,0.017383896105191976
7.968,0.02418707632363115,-0.005499189813137351
7.972,0.00973341940207395,-0.02385627543386326
7.976,0.006646022655670603,-0.03502650031449617
7.98,0.014285681524120797,-0.03561578738088911
7.984,0.03133931550943836,-0.0218809213258373
7.988,0.05736420310477741,0.007800230149137777
7.992,0.09151176109135828,0.050125225490294856
7.996,0.12997302386367782,0.09769651853629746
8.0,0.16656556428898428,0.14364250272415924
8.004,0.19691048200366246,0.18378562547536292
8.008000000000001,0.22051680672332052,0.2145548563474453
8.012,0.23820160079328478,0.2328654392193763
8.016,0.24997150778972665,0.23894514348649776
8.02,0.2551159275415067,0.23660294329247233
8.024000000000001,0.2527803373642925,0.2303698908569456
8.028,0.2438550499612211,0.22346124638394893
8.032,0.2318955783529164,0.21734199973507895
8.036,0.22090567011857765,0.21221188067511432
8.040000000000001,0.21323503702930102,0.20858174665663265
8.044,0.2102501938698158,0.20774714066348965
8.048,0.21288496700515602,0.20964255734765702
8.052,0.21955095318778972,0.21168036153310865
8.056000000000001,0.22593309585805477,0.21085162907179655
8.06,0.22812526838364278,0.20601868088132624
8.064,0.22439186646166687,0.19808773964416093
8.068,0.21538159604901863,0.18904957953008905
8.072000000000001,0.20406554922648312,0.1811345391024599
8.076,0.1940646946854092,0.17587849652892662
8.08,0.18737500257921713,0.17331984528358646
8.084,0.18388005546354336,0.17211958902383429
8.088000000000001,0.1824565663040214,0.17018594130583797
8.092,0.18205570928117853,0.16584954911012195
8.096,0.18220078019742592,0.15904043902592124
8.1,0.1829286795890619,0.15079589424815953
8.104000000000001,0.1842927629772355,0.14233372817433443
8.108,0.18585847340748352,0.13518336951867171
8.112,0.18656150348846,0.1308942192596545
8.116,0.18508362987760996,0.130320117103643
8.120000000000001,0.18036349492079506,0.13389775125896386
8.124,0.17238144387157694,0.14128284652662537
8.128,0.16366558422704403,0.14990125250546305
8.132,0.15918503276640594,0.15579046805101693
8.136000000000001,0.16286916057720724,0.15671903512202134
8.14,0.17435323523540314,0.15399897900490234
8.144,0.18946475431209575,0.15143480221357697
8.148,0.20295346002045278,0.15266673509194995
8.152000000000001,0.21052313259397626,0.1585490437040229
8.156,0.21018106049772034,0.16606374816230085
8.16,0.2037053484273026,0.17080209643650468
8.164,0.1955430816816195,0.17092609686222326
8.168000000000001,0.18849832477931083,0.16855329285179632
8.172,0.18221043967572115,0.16808981849804483
8.176,0.17666821157856716,0.17192822329114343
8.18,0.17399824542624143,0.17734076939940557
8.184000000000001,0.17567124438484916,0.17924988225696148
8.188,0.18036036484133544,0.17558544521261932
8.192,0.18497206756604534,0.16913790192147493
8.196,0.1869537511530006,0.16484645810794651
8.2,0.1859497766301672,0.16587251665097624
8.204,0.1835886919785079,0.17140692327828355
8.208,0.18184735720329126,0.17727682632539454
8.212,0.18180860948910849,0.17943874546266558
8.216,0.18371699871630942,0.1770661733888228
8.22,0.18721548572147428,0.1721383200852522
8.224,0.1910942806256053,0.16709991953565928
8.228,0.19382953891344057,0.1631689614865588
8.232,0.19495781297590042,0.1602633084524412
8.236,0.1960777017985893,0.15791513652906564
8.24,0.19975899367217598,0.15567409753090433
8.244,0.20547215684485964,0.15294572744959667
8.248,0.20789893616608945,0.1495271346995639
8.252,0.20189826839072023,0.1467073667634582
8.256,0.18783068516680657,0.14701296851341938
8.26,0.17097374120508313,0.1519321352498586
8.264,0.1576070672132388,0.15995251013650758
8.268,0.1519506044595207,0.16732176945260946
8.272,0.15492319062888016,0.17113159556035495
8.276,0.16450810563342388,0.17155200787270308
8.28,0.176975821776437,0.17086303732960761
8.284,0.18847909033668553,0.17109226263054444
8.288,0.19657234402971424,0.17236566641430007
8.292,0.20052160460644042,0.1727133409273076
8.296,0.20080789606387794,0.17033608466035655
8.3,0.19889764272615906,0.16621363191399996
8.304,0.19657193740098844,0.1633872867652375
8.308,0.19494670101216327,0.16398259705204965
8.312,0.19458621173065072,0.16746008127864775
8.316,0.19565748808648165,0.1711688820265873
8.32,0.19751521161373065,0.1726190527332403
8.324,0.1994804879689056,0.17143621653488572
8.328,0.20136282393367133,0.16901165964849585
8.332,0.20210200997014738,0.16697339152160873
8.336,0.19977506133595258,0.16652712860942298
8.34,0.19408518996323165,0.16892184241547636
8.344,0.18788363889828052,0.1754822403112435
8.348,0.185777390512734,0.186236354768623
8.352,0.19073842748055392,0.19912206907866148
8.356,0.2018042179013293,0.2106903949552723
8.36,0.21503567488679698,0.21664020868159617
8.364,0.22505830401741278,0.2124713531860698
8.368,0.22521631857701485,0.19497198556286488
8.372,0.20913032127947928,0.1635369090563088
8.376,0.17511643344230188,0.12130377410341842
8.38,0.12953185739687267,0.07570959410388345
8.384,0.08493972780014558,0.03643489398016975
8.388,0.05480287787442073,0.011909845536223651
8.392,0.048545970507946956,0.008033300931142406
8.396,0.06909254282974664,0.028180294845827847
8.4,0.11336618005063492,0.07183934012040316
8.404,0.17347147600086332,0.13342168957000466
8.408,0.23773585748991688,0.20336338326350556
8.412,0.29403700633327645,0.2701812830980117
8.416,0.3338098297815386,0.3218265738847963
8.42,0.3524349854812834,0.3480236270704036
8.424,0.3473106628139786,0.3441751364553405
8.428,0.31774687788027856,0.3133241738513992
8.432,0.26735609678224304,0.26364481772583237
8.436,0.20556522299455215,0.20419938528939574
8.44,0.1447910922751472,0.1437598338267574
8.444,0.09583744668666205,0.09155554899851337
8.448,0.06624067159073954,0.05588400610567268
8.452,0.0600647803927139,0.041897051897225035
8.456,0.0761149683854625,0.050893192443578705
8.46,0.1071700926288841,0.07965564300567407
8.464,0.14319498037271927,0.1196088075150128
8.468,0.17607392997451177,0.15883461803014964
8.472,0.20188525050611195,0.18762882164468664
8.476,0.2198756227628853,0.2032625420424754
8.48,0.23071331345127932,0.2090468888720951
8.484,0.23638367104349345,0.20890828759404334
8.488,0.2392732733630092,0.2043712952101686
8.492,0.2396632130314742,0.196576628004274
8.496,0.23666202682640658,0.18835105212851855
8.5,0.23149612391919816,0.1834695667732067
8.504,0.22748267480426843,0.1857169772969307
8.508000000000001,0.22842656528687755,0.1977246599931568
8.512,0.23818447375652374,0.21920045148788048
8.516,0.2591252331886782,0.24752231384124124
8.52,0.28887760720943123,0.27869352112402757
8.524000000000001,0.31678940640826503,0.3045194087966614
8.528,0.3211968835129855,0.3073717696488645
8.532,0.27219924068947643,0.25927391182460724
8.536,0.14585566822820972,0.13464658652934824
8.540000000000001,-0.05170513760396356,-0.06342498953885267
8.544,-0.2650171508761031,-0.2815286742272147
8.548,-0.3997910605024225,-0.4249035590117405
8.552,-0.3695109705879208,-0.4031303230133664
8.556000000000001,-0.14621775672370574,-0.18327938445279945
8.56,0.21932543800630033,0.18540443836951415
8.564,0.6135584158235665,0.5868438326482612
8.568,0.9018562991928032,0.8832489277150379
8.572000000000001,0.9818114366680386,0.9698686886185379
8.576,0.825451675613857,0.8164079330603509
8.58,0.4895892467914522,0.4777848499586115
8.584,0.091222152484151,0.07119311035659637
8.588000000000001,-0.23908193513735354,-0.26959418613703934
8.592,-0.40634760144200954,-0.4448602262769846
8.596,-0.38413751004648844,-0.42525530914637877
8.6,-0.21805515394862807,-0.2578364523616882
8.604000000000001,0.003335296456519865,-0.03553405574433299
8.608,0.19544210017496555,0.15463091909487625
8.612,0.3133258810068389,0.2693558585897835
8.616,0.3562083035391801,0.31159334399383254
8.620000000000001,0.34792000838424086,0.30937217231161407
8.624,0.3157499384039082,0.29222485080568483
8.628,0.2805282134191289,0.27682677415287893
8.632,0.25438826849342644,0.2653707434729755
8.636000000000001,0.2406208410828634,0.253829458721909
8.64,0.23622306223110212,0.24104637510314975
8.644,0.236817512115431,0.23014565376230167
8.648,0.23990458850475527,0.22416932279790802
8.652000000000001,0.24398286694481675,0.22387838007061434
8.656,0.2467894063824796,0.22821449739235833
8.66,0.24728752451600422,0.23486818309728874
8.664,0.24772526063200817,0.24162930512175262
8.668000000000001,0.25034228652348434,0.24621628795962147
8.672,0.25343124618520596,0.24434518390373094
8.676,0.25213652998391445,0.23157269962818772
8.68,0.24120421890542598,0.20735765276264262
8.684000000000001,0.21682017405701348,0.17445358549926904
8.688,0.17856590710597264,0.1355380175747931
8.692,0.1314033164317452,0.09271455527929984
8.696,0.084428657154477,0.04903810259154029
8.700000000000001,0.04567946907203635,0.00930554037907605
8.704,0.018637649996301686,-0.02034878908113036
8.708,0.003953517985018751,-0.03471970523356904
8.712,0.001862404768833148,-0.032126883010753504
8.716,0.01188323506911182,-0.014798556486990244
8.72,0.03258401366750108,0.011674296347304214
8.724,0.061779028880144304,0.04011496905652456
8.728,0.09512056968443727,0.06577306028212404
8.732,0.12638600615707207,0.08896813740440823
8.736,0.15223052420779126,0.11408484618056969
8.74,0.17549982962292332,0.14578998392106013
8.744,0.2015530526522591,0.18498794137695262
8.748,0.23268681485896026,0.2285033862562691
8.752,0.26702853543505745,0.2716074997756506
8.756,0.30088782703643635,0.30952291164276735
8.76,0.33143689968509826,0.33849578497645916
8.764,0.357166657654727,0.35703005524475406
8.768,0.3761799395851404,0.36558526325410834
8.772,0.38580758260905257,0.3654788371938087
8.776,0.38420869674214964,0.35836733541999966
8.78,0.3714170398284595,0.3455283161714411
8.784,0.3490720126108826,0.3270636532468574
8.788,0.32004679404058023,0.3022622489695579
8.792,0.2884086734246636,0.27093325565984383
8.796,0.2581127929207421,0.2348135797899742
8.8,0.23027428555296026,0.19741860587651594
8.804,0.20238113384100376,0.16153201913395887
8.808,0.1713057574314989,0.1271863302981351
8.812,0.13658570237934997,0.09270705959758718
8.816,0.10056319981854833,0.057580391740395864
8.82,0.06706742262779453,0.024536802132234525
8.824,0.03995287802388514,-0.0014982272344780112
8.828,0.02138330409399014,-0.016981914987099667
8.832,0.01188358743551965,-0.021277853045248984
8.836,0.012072844853692422,-0.014990220266269172
8.84,0.022921818145471562,0.0015062419559981333
8.844,0.044031773981960676,0.027859907211677193
8.848,0.07286946443848419,0.06227053810432337
8.852,0.10610835376987304,0.10066617166395586
8.856,0.1408377231310407,0.13854599162184278
8.86,0.1745250202996278,0.1730229266639034
8.864,0.20465259160826577,0.20197462567878155
8.868,0.22873061374491788,0.22258611884110513
8.872,0.24493420582933556,0.23222777676005135
8.876,0.2528825837849684,0.23039222792463532
8.88,0.25390506958274606,0.21968065292475902
8.884,0.2502787829590223,0.20541136155222883
8.888,0.24381859024877972,0.19383397646457934
8.892,0.23561545893434244,0.18937711520600953
8.896,0.2266548629914451,0.19253567482971912
8.9,0.2178260463635573,0.1999768441053258
8.904,0.21001036759741654,0.2062591798808031
8.908,0.20418958960672584,0.2064592651893209
8.912,0.20084848113270648,0.1994656490006832
8.916,0.19941166783145126,0.18884624913850012
8.92,0.19871871499599836,0.1794835661102525
8.924,0.19862269705139735,0.17390809818879305
8.928,0.20023508702688608,0.1718955555866788
8.932,0.2037306570107127,0.17200048257040224
8.936,0.2070624507476828,0.17309104187940827
8.94,0.20763229095183955,0.17526839667692684
8.944,0.20468068921871763,0.17858610562850075
8.948,0.19954932579442852,0.18084763678884985
8.952,0.19429588664410957,0.17923778086054898
8.956,0.19066507061434068,0.17420867303183418
8.96,0.18912421037354332,0.1689848312113038
8.964,0.18811806223908767,0.1656015591616764
8.968,0.1853378162180792,0.16379194226821991
8.972,0.17972914163763543,0.16271830510945984
8.976,0.1721502547516065,0.16143780685987474
8.98,0.1652889449730619,0.15859273775806715
8.984,0.1623960859133584,0.15362393267666596
8.988,0.16481688039639542,0.14790653675802234
8.992,0.17134815774823897,0.14358912550166703
8.996,0.17975191274841595,0.1415013584267395
9.0,0.18778630316985145,0.1408311318830704
9.004,0.19337316737394938,0.14067143014870997
9.008000000000001,0.19450432535889317,0.1411510594998131
9.012,0.19001640971504274,0.14317106174290584
9.016,0.1819184181007827,0.14746293897445262
9.02,0.17529222557991098,0.15348437083916444
9.024000000000001,0.17388632813021854,0.15949336619940757
9.028,0.17728925133928253,0.1639947991254842
9.032,0.1825871051364687,0.1665857088343996
9.036,0.18694163647837803,0.16811993642864653
9.040000000000001,0.18929468806439242,0.17038426647115923
9.044,0.190387496108392,0.17457607231271788
9.048,0.1910965463431058,0.1803245606930306
9.052,0.19201987832932632,0.18584371309079106
9.056000000000001,0.19378512753435606,0.18764850689032553
9.06,0.19607046101779813,0.18223774456509712
9.064,0.19767504591642715,0.1705131781137239
9.068,0.19825461757811635,0.15844582458013767
9.072000000000001,0.19872896782187577,0.1517441328660849
9.076,0.19977323890062126,0.1513446816995636
9.08,0.20077061310132804,0.15463932159155447
9.084,0.20031795062494817,0.1593508261430956
9.088000000000001,0.19701719409925111,0.16458878985444225
9.092,0.18991676514421996,0.16940493132993417
9.096,0.17923668186054353,0.17280272352838577
9.1,0.16747285732364592,0.17464128579474258
9.104000000000001,0.15933283458584957,0.17534023914611763
9.108,0.15887239701699252,0.17544709570770656
9.112,0.16618567769235204,0.17551493602611057
9.116,0.17738155293869085,0.17557448251387875
9.120000000000001,0.1874993375825098,0.17487967167911656
9.124,0.1934964223270994,0.17251736370904003
9.128,0.19501204043090037,0.1681581341475069
9.132,0.19331880267124713,0.16248918504913323
9.136000000000001,0.19031209115517278,0.15710903432108392
9.14,0.1875556270116976,0.15358861170395244
9.144,0.18575043748268616,0.15243251400012303
9.148,0.18538185754923409,0.1530620156395388
9.152000000000001,0.18711441221145741,0.15443058120756548
9.156,0.19135873763486955,0.15570444830654306
9.16,0.1980887640076805,0.15737942131330818
9.164,0.20630214337052144,0.16095003455482026
9.168000000000001,0.213107368338455,0.16651640402499535
9.172,0.21472894347928206,0.17258845802205092
9.176,0.20921844907425746,0.17811553667058844
9.18,0.19803295999706783,0.18199616559373255
9.184000000000001,0.185199028451001,0.18189263626458807
9.188,0.17539690580520406,0.17675620483097565
9.192,0.172573907754489,0.16894705143376898
9.196,0.17878583812839133,0.16174575235059874
9.200000000000001,0.19281107757398686,0.15713669809753372
9.204,0.20930920400572894,0.15660933377761088
9.208,0.22117641587150594,0.16091945621196913
9.212,0.2251470855224853,0.168687035112016
9.216000000000001,0.22338281731827614,0.17715754328261601
9.22,0.21804225924968357,0.183560261711607
9.224,0.20687876369343416,0.1847777160838906
9.228,0.18594438244217848,0.1773652698792454
9.232,0.1550128831259503,0.15925304044843913
9.236,0.11909790835289402,0.13208229981535258
9.24,0.08660493206495912,0.10165002858737937
9.244,0.06649729483229172,0.07518165405242327
9.248,0.06425172424336001,0.05967079537433606
9.252,0.07967968731622088,0.06255792301101848
9.256,0.10937447955054402,0.0893431405686902
9.26,0.14956871629252033,0.13853661996104072
9.264,0.19586829146885854,0.20014173485562625
9.268,0.24280337946152453,0.2591766850619557
9.272,0.2848234120538453,0.30201276135940125
9.276,0.3162651391180098,0.32174141724272576
9.28,0.3306215206818317,0.3179093668544344
9.284,0.3224384308599808,0.29240362477802484
9.288,0.2914029437002963,0.24818756491436322
9.292,0.24381256098715776,0.19156005570671164
9.296,0.1895966382192591,0.13252685363818761
9.3,0.13838841107174438,0.08130216483734132
9.304,0.09844438394703126,0.04499807314120208
9.308,0.07752006390867905,0.0274090875466666
9.312,0.08077224402282912,0.02996758359773999
9.316,0.10644374771826892,0.051966977682678994
9.32,0.1455624919430103,0.09003453219582935
9.324,0.18525850602169736,0.13691071426276546
9.328,0.21319207175991872,0.18158797098919988
9.332,0.22416567050848424,0.2137150145306821
9.336,0.22371580239649758,0.22954622557269677
9.34,0.22232324940782178,0.2326847298116932
9.344,0.22612788466291822,0.22908002035332475
9.348,0.23402468510189833,0.22266239835968538
9.352,0.24170245696061232,0.21532237212260164
9.356,0.24656686999651023,0.20852878487180204
9.36,0.249424738153184,0.20356158067218866
9.364,0.25307808720505287,0.20259251162793257
9.368,0.2604521540093727,0.21075432664460503
9.372,0.2736082836662881,0.2336362443757809
9.376,0.2920590830365897,0.27029851424558204
9.38,0.3093953253054651,0.30751870854242913
9.384,0.30972629970834653,0.3195667558271649
9.388,0.2677307174977437,0.27594783212017626
9.392,0.15809966503215334,0.15518019920060255
9.396,-0.02308048090326409,-0.03862284734976462
9.4,-0.23593540195136975,-0.2602005306744183
9.404,-0.397375239215051,-0.42457161018707046
9.408,-0.4168491423177041,-0.44118763655842685
9.412,-0.2466980683186365,-0.2639120291156103
9.416,0.08682625565085567,0.07888212975923392
9.42,0.48702203493765595,0.4887709570792118
9.424,0.821053808760029,0.8309005372975364
9.428,0.9723580263001084,0.9853039866617694
9.432,0.8880797990089495,0.8960295210843618
9.436,0.5997726187001247,0.594735192496419
9.44,0.2102356594777568,0.18768163638295943
9.444,-0.14745123643136615,-0.1864761982364197
9.448,-0.36201156581986593,-0.4109326042653537
9.452,-0.38584015631700874,-0.435902256365136
9.456,-0.2493294697061228,-0.29370937321789126
9.46,-0.03801573837107253,-0.07428440883321596
9.464,0.15798224919138404,0.12698061564357133
9.468,0.28714638857184793,0.2546709539131473
9.472,0.3438015519854316,0.3027889692390384
9.476,0.34862358744380617,0.2957069581078917
9.48,0.3271703031536668,0.2658179290835516
9.484,0.2978118759639763,0.2382599793812088
9.488,0.270073466980594,0.22369648815448406
9.492,0.24909194321980666,0.22084197429954866
9.496,0.23849659425958136,0.22481835149162288
9.5,0.2391680008253223,0.23265467564909348
9.504,0.2477221092582107,0.242605666300876
9.508000000000001,0.2581948668737881,0.2522654293438349
9.512,0.2659945341339671,0.2596570078988081
9.516,0.26986526183575443,0.26454404781641205
9.52,0.27033441262198843,0.2671268401805429
9.524000000000001,0.26770379102001085,0.26578427095849655
9.528,0.26102860816975415,0.2565308680095053
9.532,0.24754356776113684,0.2354307493831178
9.536,0.2242891953999,0.20229215897393305
9.540000000000001,0.19153435789248197,0.1610418706167105
9.544,0.15323959125538145,0.11646411120845168
9.548,0.11395600130277161,0.0729246151748868
9.552,0.07709010675041417,0.03544288564498066
9.556000000000001,0.04566958074773031,0.008508512701285165
9.56,0.02239881611279193,-0.006398521519758726
9.564,0.008637364233965217,-0.010961243366829687
9.568,0.004441026867106457,-0.007917044055028799
9.572000000000001,0.010156766107728643,0.0009539995346310448
9.576,0.02682934801378889,0.014571302916490447
9.58,0.05354740112319112,0.03134469372505455
9.584,0.08536556731631562,0.05012194498824263
9.588000000000001,0.1157110946271076,0.0716488778056592
9.592,0.14129262980033896,0.09778158192038133
9.596,0.164456330911682,0.13021429919988314
9.6,0.19089796293440497,0.16976848623252794
9.604000000000001,0.22467670508518833,0.21478013201496604
9.608,0.26431168309521147,0.26021079064905495
9.612,0.30355402091251915,0.30021706090687994
9.616,0.33620155746028657,0.33148375829117693
9.620000000000001,0.3594891655109149,0.3531962357283034
9.624,0.3733843483788899,0.3654996144175724
9.628,0.37875460022634555,0.3696287574444421
9.632,0.3768272405677524,0.36775964552732177
9.636000000000001,0.3692835392907321,0.3606101658486849
9.64,0.3568972591876327,0.34616447683742857
9.644,0.33787573168024676,0.3221752863154277
9.648,0.3102974663480711,0.2892103839630269
9.652000000000001,0.2758605725729193,0.2505692992186197
9.656,0.23867040858300603,0.20988016723891678
9.66,0.2017683363051126,0.16936549011659263
9.664,0.1662621928971484,0.12974396280970724
9.668000000000001,0.13215802481305583,0.09153729292297363
9.672,0.09930286197070348,0.05677052851362574
9.676,0.06864005793611727,0.02835892356509362
9.68,0.043161760367012914,0.007959462483518864
9.684000000000001,0.026755924757736915,-0.005010028230376107
9.688,0.021140194830814085,-0.012902768477891735
9.692,0.0243916095284622,-0.017297052528827628
9.696,0.03307327072330768,-0.01597337562113832
9.700000000000001,0.044989190099860465,-0.003917013874147002
9.704,0.06033417446847755,0.022095027399542833
9.708,0.08233196235757734,0.06114576782108294
9.712,0.1155123019583566,0.10913767407126285
9.716000000000001,0.15978583000781788,0.1597782535959642
9.72,0.20633084914909028,0.20572617319129893
9.724,0.24199757778390207,0.23969713540006543
9.728,0.25874900118913247,0.25589589800101664
9.732,0.2586568156087592,0.25386537082993677
9.736,0.250808956620997,0.23987918034935252
9.74,0.24422377290974873,0.2222228554712522
9.744,0.2422297545310821,0.20678201357667936
9.748,0.2420527765037257,0.19619259479980866
9.752,0.23947677234151188,0.1904041297795387
9.756,0.233309503083861,0.18839190975769404
9.76,0.22520098307198544,0.18878460402347597
9.764,0.21672594795538003,0.18885722971066854
9.768,0.20840162871080037,0.185758133008878
9.772,0.20139176271751058,0.1795383042898011
9.776,0.19801301754455025,0.173952481774019
9.78,0.19931595670130076,0.17340221389870702
9.784,0.20292357370215397,0.17865735679485306
9.788,0.2037954924737193,0.186323624262001
9.792,0.19809263514570508,0.19205985976001916
9.796,0.18702448237641556,0.19302408337660104
9.8,0.1759513433929949,0.18842194194852446
9.804,0.16988766021815382,0.17984314873882923
9.808,0.17077684748075872,0.17060649066253175
9.812,0.1778716994140377,0.16344739405041087
9.816,0.1883932140838711,0.15952549736759947
9.82,0.19758577831194124,0.15896382378770024
9.824,0.20054703468800006,0.16033543224008606
9.828,0.19580257608916019,0.16103050283366427
9.832,0.18661923431688354,0.15977848189359012
9.836,0.17836623536535567,0.15746607602853158
9.84,0.17504252572655754,0.15467207306968977
9.844,0.1773646623820122,0.15032460952858706
9.848,0.18270642972060291,0.14427124288465687
9.852,0.18771926426678132,0.13944105998251466
9.856,0.19119773378959604,0.13982482250550454
9.86,0.19291860517031445,0.146621828104744
9.864,0.19139861675445946,0.15665773774026603
9.868,0.18520338447948537,0.16518192061981551
9.872,0.17528678473280568,0.1701695446976097
9.876,0.1647322796453463,0.17271323774396174
9.88,0.15649935382633817,0.1741127419835644
9.884,0.15208355120586603,0.1739265321514636
9.888,0.15188423908429316,0.17035645657680876
9.892,0.1556062217842027,0.16296126245095022
9.896,0.16234353549688674,0.15487906494626524
9.9,0.17079648771835454,0.1501173323289755
9.904,0.17971546171221942,0.14929885655270758
9.908,0.1881473924617132,0.1508474046937014
9.912,0.19561230365927562,0.15411593206929042
9.916,0.2024340924281971,0.15817628519335325
9.92,0.20819884930550692,0.1603403457103656
9.924,0.21032822364608816,0.15863211402147748
9.928,0.2072663594185291,0.15441122028913967
9.932,0.20151756024585765,0.151637564554308
9.936,0.19698402006554572,0.1538809792486644
9.94,0.19527727673512896,0.16145885171440888
9.944,0.19561122127587027,0.17080852391439771
9.948,0.19674716866567965,0.17739295644262243
9.952,0.19852140297951548,0.1799727408911691
9.956,0.20157744768051766,0.18125092343066806
9.96,0.2056366300275838,0.1835293282924073
9.964,0.20863350015360727,0.1855475295313409
9.968,0.20904406525912056,0.18573612245076876
9.972,0.20927880385851583,0.18603758322367292
9.976,0.21391304844202086,0.18967595785498803
9.98,0.22313775708373784,0.1966386382343177
9.984,0.23031832769454996,0.2022792405108944
9.988,0.22745262664296528,0.20027603635969826
9.992,0.2118630953402867,0.18775134561204454
9.996,0.187818414248623,0.16785616992779584
