Time,Channel_1,Channel_2
0.0,1.6468876177135479,1.1672007891297436
0.004,1.4345053820587588,1.2020572925444326
0.008,0.6955905955935433,0.4800829108167975
0.012,-0.42678187066125484,-0.385516412580169
0.016,-1.2073098192356626,-1.0148428532269167
0.02,-1.4286226333704897,-1.1165514814187554
0.024,-1.1568157544866515,-0.9705358304190524
0.028,-0.5779277831851536,-0.5116276291224405
0.032,0.020988161613749418,-0.14060147979370144
0.036000000000000004,-0.22463279341241216,-0.05718802540984386
0.04,-0.03624028190637778,-0.04915199824314287
0.044,0.15039589778945595,0.16784621314181475
0.048,0.12855673402803688,0.11506280392181144
0.052000000000000005,-0.14455165499550862,-0.1818795035627792
0.056,-0.17539154413543617,-0.20304307245437153
0.06,-0.052798438850444857,0.017404098656997827
0.064,0.24083651044371027,0.16884494867141947
0.068,0.14148334409176638,0.10951297755757179
0.07200000000000001,-0.0534683342991487,-0.16432567533953438
0.076,-0.2088631040527997,-0.16284864688067704
0.08,0.029240303761684263,-0.00988377712688733
0.084,0.17614559907003816,0.1554924805510302
0.088,0.16951947214314766,0.12651976531084308
0.092,-0.10916037945174759,-0.050951018450782364
0.096,-0.11282926262793884,-0.2540475698575705
0.1,-0.11024179131205597,0.029774913206843848
0.10400000000000001,0.1804295124287511,0.2595231553448044
0.108,0.055879898177463076,0.14408956225729586
0.112,-0.26805907893983444,-0.1611033683400034
0.116,-0.3093458438010518,-0.299681625697891
0.12,-0.10902916358398296,-0.1586519089253925
0.124,-0.10791450640991644,-0.07951032855075828
0.128,-0.15162097746104267,-0.19850915132260372
0.132,-0.47478648282134833,-0.39352581309806334
0.136,-0.5771379745134164,-0.5062831499537299
0.14,-0.3444512366515435,-0.27749402935437645
0.14400000000000002,-0.06266895375367643,-0.12752311394941532
0.148,-0.19299724296639856,-0.1409236201260894
0.152,-0.30757824818047674,-0.2771625241021997
0.156,-0.41656683097251623,-0.3334891407079335
0.16,-0.06961811012380154,-0.1553839220516478
0.164,0.1173670585008472,0.12336730618604318
0.168,0.16106292970582575,0.1277665049179558
0.17200000000000001,-0.07434986348448691,-0.03626941936097883
0.176,-0.057146470459363746,0.0045533663818999315
0.18,0.1539630595913413,0.22811890724745945
0.184,0.44139420711076177,0.3605536280234009
0.188,0.4164709292024535,0.35969923754938626
0.192,0.1653840338475346,0.22943694193879238
0.196,0.24442214180144411,0.1757412711756159
0.2,0.40193517623289404,0.35093078828548446
0.20400000000000001,0.591365987598354,0.48916610529852633
0.20800000000000002,0.46947656798437093,0.3917738534487538
0.212,0.1537741146295191,0.24969372882110338
0.216,0.09566477717632439,0.14844738327392037
0.22,0.26779831523250636,0.16842705244399198
0.224,0.3667172966315179,0.2651526204172826
0.228,0.12134633347021462,0.16831331693329907
0.232,-0.042609227826607546,-0.16315454370883
0.23600000000000002,-0.2665916012539071,-0.3053170496089227
0.24,-0.1907001105178705,-0.15962167110236802
0.244,0.017014171375069092,-0.000738253813538061
0.248,-0.1253604193357328,-0.09559600549856079
0.252,-0.32471506560470964,-0.3615568580770541
0.256,-0.5016656237954287,-0.4907400023924872
0.26,-0.3087313444190127,-0.27145519439705695
0.264,-0.09358029159071299,-0.13088286841248506
0.268,-0.20355549554139407,-0.1757912984586546
0.272,-0.42415630670999405,-0.2881254679255589
0.276,-0.3613389822855779,-0.37503167129596093
0.28,-0.24023456747093178,-0.17401267876480847
0.28400000000000003,0.05671116033415022,0.04712054460851848
0.28800000000000003,0.09277751719204073,0.01883743298939232
0.292,-0.12915482069951384,-0.13921209180435498
0.296,-0.04705709126820974,-0.14370534765108087
0.3,0.21374208958189383,0.09902384110404946
0.304,0.20753198550706276,0.15823223102880885
0.308,0.16280300099539255,0.18619778061741438
0.312,-0.03607745752173215,-0.06390335152598992
0.316,-0.07031083577833487,-0.13701450653434416
0.32,-0.03386505295745848,0.0005051208628445332
0.324,0.2431021631210496,0.24368891532675263
0.328,0.16656824708190368,0.08702553202216301
0.332,0.0010374071237381488,-0.09304601631920689
0.336,-0.16464516159438108,-0.15877808720454537
0.34,0.01731180506121866,-0.002779003136964133
0.34400000000000003,0.14257342228312714,0.1900177618992431
0.34800000000000003,0.11096355717406778,0.15217473641792087
0.352,-0.12135037107225385,-0.10490170243775072
0.356,-0.13499470129610996,-0.11126733650935303
0.36,-0.014017471755690132,0.10896785979918501
0.364,0.24432077621852222,0.22365841542247578
0.368,0.14822417588077605,0.1290842729440632
0.372,-0.051722229256331825,-0.12116348388359374
0.376,-0.12181844058171068,-0.12061074487108062
0.38,0.011729279828864694,0.06547711405797318
0.384,0.22607154274106026,0.18013844945704918
0.388,0.17290852520963051,0.19345200553349629
0.392,-0.05747437023067574,-0.0768010674681043
0.396,-0.14821600377264815,-0.17961410037152042
0.4,-0.020383497784670655,-0.00600520912275794
0.404,0.2087503052923715,0.23630902208150487
0.40800000000000003,0.25302927912457857,0.026034384286820297
0.41200000000000003,-0.030464626193637302,-0.11179484513124463
0.41600000000000004,-0.11443050629931181,-0.12316140487589101
0.42,0.007451989057650349,0.07405802151752619
0.424,0.3569433617214069,0.22982488293115247
0.428,0.15933114543690732,0.12585922967619417
0.432,-0.02884642228327139,-0.12066385231133633
0.436,-0.09413299827512647,-0.11723565241809855
0.44,0.05888119268211223,0.10571478836803008
0.444,0.1827335847919797,0.23323162376470016
0.448,0.24057038555740642,0.07062089666767368
0.452,-0.09697721748231762,-0.06774423786028294
0.456,-0.19030306914012887,-0.14092691774567595
0.46,-0.1198321140417967,0.03450320870518899
0.464,0.22000919522906104,0.19369668266327242
0.468,0.2215421324733867,0.07894976162926265
0.47200000000000003,-0.15437098052965748,0.014216225662357668
0.47600000000000003,-0.20326673478145876,-0.14249049797463506
0.48,0.057761668829741555,0.03941255049595985
0.484,0.2964462837576453,0.16631991602314067
0.488,0.14997502648081112,0.14458367992332574
0.492,-0.06637933090279956,-0.00036769623646581984
0.496,-0.11754847059359547,-0.21945491258574606
0.5,0.005066172344258012,0.06447108518954055
0.504,0.20902750596798206,0.30538134776767784
0.508,0.13204982963015927,0.10803675933561618
0.512,-0.11391144668946372,-0.09807578784528759
0.516,-0.1272658681858165,-0.16362657089874866
0.52,0.01638678191800811,0.09698944086234422
0.524,0.29696602182531107,0.2405064160156881
0.528,0.1409149277786319,0.13576720761859695
0.532,-0.1659963332513203,-0.13561419582683112
0.536,-0.1360957080870339,-0.24418523258009472
0.54,0.07366395067577822,-0.01583803698401063
0.544,0.2684350726721787,0.25189103993292633
0.548,0.2463571917520383,0.2059365571059797
0.552,-0.1018030101097436,-0.0838708209308804
0.556,-0.14070163565113206,-0.1385050945612757
0.56,0.1502659401791535,0.015000177798184737
0.5640000000000001,0.2267775428624707,0.18856182826757098
0.5680000000000001,0.14285808739624173,0.2045764993963765
0.5720000000000001,-0.13874386216278117,-0.07779431076174478
0.5760000000000001,-0.1359832777396612,-0.11469802999983619
0.58,-0.0023287613439977872,-0.05055715249064005
0.584,0.19736220515144048,0.21212377983429892
0.588,0.2195032336107266,0.18574071528653202
0.592,-0.09360646159628215,-0.07336715456315271
0.596,-0.09087393733881918,-0.07779089049542504
0.6,-0.02118248233057015,0.0679393067784924
0.604,0.2424894204131973,0.24784073947421215
0.608,0.16580906889705546,0.1545412043568941
0.612,-0.06255910978928625,-0.06588137193343929
0.616,-0.16964435449245677,-0.15969442049451837
0.62,0.11392889593847,0.035021215270349716
0.624,0.23408812113518432,0.1966898540060711
0.628,0.15375806626085417,0.2007523063327205
0.632,-0.061603738855004905,-0.05233320625911722
0.636,-0.19670336944068395,-0.07229591957672821
0.64,0.06264088024994709,0.035301849681173614
0.644,0.29683796845588933,0.178947918443102
0.648,0.1184536822534128,0.18324570047369168
0.652,-0.041786351289111096,-0.08691825733746095
0.656,-0.18302551121507404,-0.10839527828721372
0.66,-0.009215730075285047,0.009978900285948951
0.664,0.14435275709265752,0.13182854223317747
0.668,-0.06564030097784719,0.0376419990478683
0.672,-0.3356886088688821,-0.21192017953400105
0.676,-0.3744424856250161,-0.29939821447685816
0.68,-0.09312633996616672,-0.14462916690382352
0.684,0.04613288709976796,0.044968042511815645
0.6880000000000001,0.08083304172895045,0.11353095917798312
0.6920000000000001,-0.14327356449587453,-0.010637088204604996
0.6960000000000001,0.021662352472132704,0.012502969408553749
0.7000000000000001,0.20678749039699484,0.20606237863133373
0.704,0.5030657231366373,0.465972993380775
0.708,0.5930287661222484,0.32468709840207655
0.712,0.17433458358101872,0.149860095272997
0.716,0.05700451525673314,0.05882127913433077
0.72,0.2083255671181481,0.033859406263557185
0.724,0.20498971745158848,0.20915140040382646
0.728,0.032119565650239254,0.03230423738812648
0.732,-0.18376364891342278,-0.24971286601320336
0.736,-0.5041357953541851,-0.2970641130051536
0.74,-0.13003229334000907,-0.09786621262421122
0.744,0.06306681638854354,0.02417836679301158
0.748,-0.027020315479354157,0.030215192429898848
0.752,-0.10625364904932488,-0.12296937965844817
0.756,-0.09417344379288878,-0.10596360415310098
0.76,0.007917973243382892,0.03860766706241086
0.764,0.3576690406489289,0.1872150445394858
0.768,0.1175712116050766,0.14584791960908308
0.772,-0.022025146038701877,-0.05882697899344414
0.776,-0.20553348034644214,-0.06875349062746486
0.78,0.04584224840926149,0.1087008105742604
0.784,0.20139394159776214,0.3212417416907893
0.788,0.1976470326786967,0.20725295000531146
0.792,-0.07854921599416956,-0.07306508981307375
0.796,-0.04447912159136731,-0.08726185094011796
0.8,0.11974295864546172,0.08401118456319573
0.804,0.2640100360934768,0.21494472610978682
0.808,0.3050828281138361,0.21107830412768022
0.812,-0.018884864354943534,-0.039145504470831885
0.8160000000000001,-0.13536855820768068,-0.02741241132723654
0.8200000000000001,0.11464867888184235,0.04321490853882174
0.8240000000000001,0.2984095771413156,0.23540541922802632
0.8280000000000001,-0.39131117266073456,-0.2606498147361496
0.8320000000000001,-1.2221150041785038,-0.975137256199536
0.836,-1.5956359857806155,-1.334520683280703
0.84,-1.0927215464525357,-0.9416597132251482
0.844,-0.37276922303755716,-0.2026672632335803
0.848,0.4232620604704653,0.407257816491744
0.852,1.0032127804815474,0.833275147252828
0.856,1.3808878871213428,1.1046235862245837
0.86,1.4719084546503565,1.1138621743614237
0.864,1.0691369344069528,0.9024962140653525
0.868,0.17532846707736438,0.15130570503630214
0.872,-0.9452495107221667,-0.701287728145547
0.876,-1.5425522565379497,-1.227549724225306
0.88,-1.3177327721133163,-1.1003127427349169
0.884,-0.7390815851182533,-0.4606513291115351
0.888,0.1421177015122506,0.06956713949459054
0.892,-0.07992665442164686,-0.03923321065201144
0.896,-0.20785315038990518,-0.07296339839890674
0.9,0.12455997465935079,0.00015951974244655942
0.904,0.36594480360483866,0.2059848321598651
0.908,0.28078897431589267,0.22412678487643078
0.912,-0.017653967147762156,-0.07853605601656591
0.916,-0.09636963537213739,-0.07909693754231507
0.92,0.1096604234998247,0.0754419208001119
0.924,0.2154817128505846,0.24938346536387493
0.928,0.13863964549086577,0.20452045837313887
0.932,0.018349414368691745,-0.07169560854059764
0.936,-0.05489084963620549,-0.09960733504299746
0.9400000000000001,0.14204835395706045,0.11326807892608325
0.9440000000000001,0.2950357972943197,0.28607394824459353
0.9480000000000001,0.17404365953804624,0.15721284366162216
0.9520000000000001,-0.05687294714507471,-0.11087265538611586
0.9560000000000001,-0.07842233960778422,-0.11796652624966703
0.96,0.11353829296852432,0.13194782883352574
0.964,0.22579209934311273,0.22014385723863122
0.968,0.1681009643531066,0.10137530901698465
0.972,-0.09884126597955224,-0.1606561538026321
0.976,-0.3118488521762195,-0.2827614588200172
0.98,-0.2565275884927938,-0.15479330924354426
0.984,-0.025793050140159375,-0.08296426664636297
0.988,-0.15520607930398128,-0.14117809813281018
0.992,-0.37105140443281637,-0.31767132554207034
0.996,-0.5319140794930951,-0.44302852109870805
1.0,-0.24199753780448996,-0.17638055739822767
1.004,-0.001578794619985089,-0.03842228093874028
1.008,-0.09529746825026023,-0.01869057198040136
1.012,-0.2628424541679376,-0.20764558444312195
1.016,-0.2831611598923548,-0.1964903826911704
1.02,-0.1168327126397471,0.015204078381921749
1.024,0.3032433915966592,0.21108051218905077
1.028,0.20607021716531693,0.18053206416144962
1.032,0.06121758114428209,0.0920629968840062
1.036,-0.029408602914069937,0.11048247520375644
1.04,0.27732211477423707,0.24758773007559012
1.044,0.6300674418636422,0.4980785925518393
1.048,0.4870492363027979,0.4710902623773036
1.052,0.29777677611090075,0.24123680510193776
1.056,0.25018953193046556,0.16750604902713376
1.06,0.45534272154361544,0.38213846658448397
1.064,0.6421236410325705,0.43775258139822604
1.068,0.42254347990774116,0.4621723136137131
1.072,0.274177450841274,0.21005398001165485
1.076,0.08747139973320639,0.004947209941645325
1.08,0.3047759570546364,0.25178240427388987
1.084,0.35627258909902265,0.29274715786204575
1.088,0.2230915087691086,0.19873044355850047
1.092,-0.03471504835341527,-0.10368466990669074
1.096,-0.15248928692634725,-0.1952038806186852
1.1,-0.0425740353911247,-0.03809169114511744
1.104,-0.05319684351735697,0.09302214574815605
1.108,-0.0751884682930158,-0.020531276404384707
1.112,-0.32969320484028375,-0.3097398540201985
1.116,-0.37005274175381875,-0.3976737109173124
1.12,-0.23755568990269926,-0.2396637111346168
1.124,-0.029728922549266346,-0.07852412071692956
1.1280000000000001,-0.11793132583303559,-0.06075674582688647
1.1320000000000001,-0.2238282122599054,-0.29378298405323894
1.1360000000000001,-0.3127395412746628,-0.3261822782984573
1.1400000000000001,-0.07980993522883503,-0.12843403732793213
1.1440000000000001,0.08701110868532602,0.17673434606884203
1.1480000000000001,0.22381588585290968,0.1809529536237453
1.1520000000000001,0.017672714158239487,-0.01692488322685662
1.156,-0.011118843584070278,-0.03904410212918358
1.16,0.13852028333193794,0.0759965582307384
1.164,0.29588753246531607,0.32025309276126235
1.168,0.17571865570136438,0.21756628948007334
1.172,-0.11020537960200112,-0.0745208226622618
1.176,-0.04339152002136321,-0.06493780594795973
1.18,0.14479928249827595,0.02705133388243606
1.184,0.35709525125628555,0.20975714425796954
1.188,0.2277297569215123,0.1393291208510617
1.192,0.026928840882334888,-0.0012206536650122002
1.196,-0.044752876696636294,-0.07701549298882372
1.2,0.2213396161326544,0.14050630600583708
1.204,0.30667031232790304,0.2682603709821035
1.208,0.16936863415225997,0.1771183175960523
1.212,-0.02218991760914341,0.04289694989656731
1.216,-0.09546857110661623,-0.02515646924723009
1.22,0.12975180659247615,0.08988690446114786
1.224,0.3499371651280305,0.24361224648311586
1.228,0.2159168116419602,0.2769700416021959
1.232,0.04361107758481719,-0.048467218150374795
1.236,-0.12623723586897093,-0.047637724418951526
1.24,0.11595380618072418,0.08644106170669363
1.244,0.2725105101950089,0.29934972993768016
1.248,0.26347311574692905,0.20682804588279882
1.252,0.0965998758080634,0.005873803543286666
1.256,-0.16792166248385942,-0.07727501944178428
1.26,0.09065312264709222,0.08642412745064593
1.264,0.15011706091144694,0.24630038796627032
1.268,0.25203159415126275,0.18713999685972257
1.272,-0.010688335002165586,-0.04846773918651002
1.276,-0.01888902959569829,-0.051744255648286885
1.28,0.07588906354208345,0.06414651282789928
1.284,0.29370592258492373,0.3161076953645507
1.288,0.2401395925640949,0.23438233131112063
1.292,0.002526148815085917,-0.030311625904645274
1.296,-0.0918491999296484,-0.005027053974498763
1.3,0.11994666421913142,0.024853434729558088
1.304,0.2668867572014546,0.28616174561253355
1.308,0.24779911598700827,0.195235836244478
1.312,0.008677317049636018,-0.03747727805288817
1.316,-0.1473760253349847,-0.06363779727785482
1.32,0.07785301249470261,0.17208283784971912
1.324,0.280241935247701,0.28076706098039517
1.328,0.2798927659142747,0.2246077652132926
1.332,0.019258159158669096,0.03793794136586162
1.336,-0.047779827474690395,-0.11877653176411473
1.34,0.14642120604164624,0.07421817106938398
1.344,0.338746498583786,0.31072874085562496
1.348,0.24375476650330857,0.23471732688980043
1.352,0.11052286907523744,0.006143331011188734
1.356,-0.045498764048496856,-0.12039112921726813
1.36,0.07905625853818418,0.09274128624197246
1.364,0.3230103923751711,0.2983160110914401
1.368,0.3042663879707498,0.1576082139124497
1.372,-0.08558112338717401,-0.019003940034367173
1.3760000000000001,-0.07889599613341342,-0.1576230938409452
1.3800000000000001,0.12622451366044932,0.15355255427776407
1.3840000000000001,0.35802335230934235,0.28376619875878883
1.3880000000000001,0.27526169266636913,0.18823346742025884
1.3920000000000001,0.05018421105701498,0.027465390414213454
1.3960000000000001,0.00019602600353368915,-0.013177026499767035
1.4000000000000001,0.07353987342776375,0.10670440011618801
1.4040000000000001,0.2719630191902592,0.2906583145644209
1.408,0.2496332962809253,0.2510760243818369
1.412,-0.0033626161759491655,-0.06612471934634652
1.416,0.01597769787390818,-0.08779140684580669
1.42,0.02667598343086497,0.08215354816271053
1.424,0.3325535102934024,0.2861632912041129
1.428,0.27081392730514736,0.20873713105058422
1.432,0.02294526187046691,0.002522607624515413
1.436,-0.06713659697718774,-0.05132990143223242
1.44,0.11004441272790434,0.14937091173447284
1.444,0.38734034786473837,0.3196805817458466
1.448,0.2012965989638626,0.31121867240479817
1.452,-0.013672552998013694,0.012409272407552907
1.456,-0.0740689194732352,-0.03551514655144934
1.46,0.13308910498588034,0.1223687672813413
1.464,0.30394318871060844,0.24300806101955116
1.468,0.27439895181179985,0.2615619775570958
1.472,0.05109490740883054,-0.004944268497611516
1.476,-0.025754252820846767,-0.05330096049979391
1.48,0.16691977193121219,0.1257991310204695
1.484,0.3780459846617582,0.27091973750931964
1.488,0.2783613335814108,0.17017989062205635
1.492,0.048897935330554865,0.010575735055573882
1.496,-0.08603609056521222,-0.012302008094915703
1.5,0.13497992387440028,0.07634533915204406
1.504,0.3589440286981067,0.2732344765156882
1.508,0.3555446038000248,0.1899138551843532
1.512,0.05741051788461239,0.011059897164353995
1.516,0.011351423523347358,-0.03492155900827805
1.52,0.05122617923925422,0.010938242311160126
1.524,0.15027260232618975,0.15586446313082158
1.528,0.04850645641437559,0.07854804138752301
1.532,-0.22735811257783659,-0.11151874188985472
1.536,-0.2638667044646883,-0.2974525571141297
1.54,-0.05852990739550152,-0.08582204253171569
1.544,0.24032141476533336,0.2874318686686506
1.548,0.21079876791123867,0.21374512363805243
1.552,0.17427256968493157,0.07693264943182104
1.556,0.18941104224178695,0.06732783772374507
1.56,0.35581730691589997,0.2740730751764572
1.564,0.5816330423512671,0.5289682640294538
1.568,0.5387678586946743,0.37773250891684795
1.572,0.2803922661467735,0.16235918805347227
1.576,0.12820164097269754,-0.014237802404251584
1.58,0.17940097236223138,0.12804980100414137
1.584,0.20702617227619602,0.23826187219376094
1.588,0.047403941016063905,0.023602738570118055
1.592,-0.20382473909817292,-0.1908683620671032
1.596,-0.24589491851355996,-0.24381462066803966
1.6,-0.12532733817687464,-0.003527216838868641
1.604,0.1748102808289664,0.18024992272102808
1.608,0.09028594665619888,0.14285159297201747
1.612,0.03857315437790739,0.0620852491650247
1.616,-0.10478154402017154,-0.10211216907253792
1.62,0.24168437685663005,0.11344003362606053
1.624,0.24020139001872126,0.2764543952183532
1.6280000000000001,0.21982952067579523,0.1884227758190451
1.6320000000000001,0.023779821449584737,0.03366534749495327
1.6360000000000001,-0.013037300352161017,-0.06886940060447024
1.6400000000000001,0.11570064536184652,0.13305195653804325
1.6440000000000001,0.28813173214124715,0.26628534068893006
1.6480000000000001,0.19925956951223633,0.2635425447575375
1.6520000000000001,0.055570127341266345,0.014338536734285104
1.6560000000000001,-0.00540467695373862,-0.1165579059293445
1.6600000000000001,0.1528101018377576,0.11237353679157468
1.6640000000000001,0.33048084618809775,0.26843073116394933
1.668,0.23989203556964855,0.27136584863240637
1.672,0.024629444651771,-0.030183868423793267
1.676,-0.018490373102565544,-0.1003282116558191
1.68,0.10083249146653953,0.12386234187003915
1.684,0.436824839318362,0.25932605644535883
1.688,-0.739941732630634,-0.6167461943057916
1.692,-1.4872678001394977,-1.173019878576644
1.696,-1.3909738154885476,-1.1353459443692426
1.7,-0.7488073503942341,-0.5299156440196165
1.704,0.44073240624630133,0.26885945408378015
1.708,1.16736315289001,0.9609538580290796
1.712,1.4809905364211033,1.187882623608097
1.716,1.3484279110444495,1.1324181623285339
1.72,1.2154476885521799,0.8661264960793318
1.724,0.5316299223133403,0.3718733695203192
1.728,-0.4108593053525569,-0.31489874741019275
1.732,-1.3201983132102806,-0.9715349133526532
1.736,-1.5214242626603944,-1.2127685479957877
1.74,-1.0062680977239509,-0.737222704591961
1.744,-0.10762146093637939,0.0517816545656598
1.748,0.20437632086355345,0.2624514416044502
1.752,0.025920834300328904,0.047666620946699996
1.756,-0.09760925033900163,0.03459236776805741
1.76,0.1930254315428988,0.1263178161833345
1.764,0.41486515953257863,0.3233489408614363
1.768,0.2827699335151623,0.20049694476061447
1.772,0.017708039902061018,0.06389892482192808
1.776,-0.06482079995569866,-0.0774048368399966
1.78,0.1408754800465833,0.06859854501305393
1.784,0.34314794505519325,0.31479612038679994
1.788,0.27650798270178883,0.28215196522983876
1.792,-0.008148381481355195,-0.01668605092068532
1.796,0.025422621626157577,0.022560000869177754
1.8,0.15939584232342405,0.11847876704865457
1.804,0.27890007815379997,0.3341878705822568
1.808,0.25972827021863953,0.30147660275676763
1.812,0.03681572600122883,-0.03081891355199156
1.816,0.11553650515378612,0.0449722473271724
1.82,0.17667212755884965,0.08889447304513057
1.824,0.24130763512096992,0.23903883706857582
1.828,0.1310723333633625,0.05560205011389595
1.832,-0.11570869920270416,-0.1426412575445912
1.836,-0.30729171288824947,-0.2462955640280626
1.84,-0.15638778356481983,-0.16647574759634048
1.844,0.1023248795860197,0.043835603060963624
1.848,-0.11338960563925524,0.006555455159129989
1.852,-0.3263275265606474,-0.21737623725599547
1.856,-0.3762195659564356,-0.40097653472897965
1.86,-0.05939842961353936,-0.14003327341744548
1.864,0.050572121656605115,0.031064626079740164
1.868,-0.007829284648532997,0.06293156143713906
1.872,-0.17033960577439788,-0.08703504462652947
1.8760000000000001,-0.10430496315174724,-0.11170887267598932
1.8800000000000001,0.09722445961616598,0.10868567010728408
1.8840000000000001,0.2649414803554159,0.32879712712735343
1.8880000000000001,0.3687657705118077,0.31896974823574104
1.8920000000000001,0.2152700000704082,0.1880969043645833
1.8960000000000001,0.21912267681098851,0.10303445614641998
1.9000000000000001,0.4045831359677277,0.39974780843047275
1.9040000000000001,0.6793878463963288,0.5520415802755889
1.9080000000000001,0.7050708751809136,0.5016862838668443
1.9120000000000001,0.4504855291866738,0.3032495816295239
1.9160000000000001,0.3044797566347189,0.26183397495739513
1.92,0.4968760883914858,0.375984842903305
1.924,0.6642164965276913,0.5767460488082761
1.928,0.6381284250143404,0.4959030959794919
1.932,0.2799170052822024,0.19036148557122598
1.936,0.09963329733064857,0.06551015626242918
1.94,0.23683800958650297,0.2400572346258513
1.944,0.48826313403404425,0.3240014884888951
1.948,0.3004512066392939,0.2788627392721045
1.952,-0.08953524924474637,-0.07537257679036591
1.956,-0.25771866064006604,-0.1714612613775338
1.96,0.017164989190193422,-0.03526670781935796
1.964,0.15860563354308416,0.07164649852114055
1.968,0.009400393353816885,-0.04646302337650475
1.972,-0.2516509201525113,-0.2647882964485705
1.976,-0.39274791061382064,-0.339663543109958
1.98,-0.21884807173542403,-0.10788438477157744
1.984,0.020235841174735807,0.009098121405329448
1.988,-0.050100233811111144,-0.017052525573690733
1.992,-0.25063407269626353,-0.1431026289421064
1.996,-0.19348427536587146,-0.19788025130507253
2.0,0.024676103825280425,-0.014870723462771386
2.004,0.3172300494329302,0.2510628745604729
2.008,0.26000263244985333,0.2173932975520206
2.012,0.04174922656507356,0.12850880869729944
2.016,-0.023038014038347113,0.00963242442746385
2.02,0.2122385537557204,0.1621314068950765
2.024,0.3719111979411446,0.36628300316880946
2.028,0.2575791225985462,0.2994026173426642
2.032,0.036590701344294596,0.01815393634490603
2.036,-0.05141348735443713,-0.07677883915325111
2.04,0.10676059031185485,0.11824106025807946
2.044,0.3946814753509261,0.34153533577437956
2.048,0.3942944543136468,0.2531356602624004
2.052,0.11108901930501605,-0.011961652733142251
2.056,-0.03626094318513632,-0.023486882207306665
2.06,0.15424215914715356,0.09637275835241871
2.064,0.4241078104610374,0.2835100313069473
2.068,0.2895954638000002,0.3061541640508217
2.072,-0.050670133773862355,0.034086269104708244
2.076,0.0627274245117159,-0.03224058475039487
2.08,0.2693315943462968,0.12216149641201943
2.084,0.3038865459780754,0.31086173917242055
2.088,0.3298616874693655,0.30780178542705944
2.092,0.08063819629566796,0.017161725913980363
2.096,0.07222653856834818,-0.016021041376097056
2.1,0.22646535606922463,0.2118584590698417
2.104,0.43334343822262766,0.3041689932621215
2.108,0.3117878490671539,0.24138392733564915
2.112,0.07858167665096699,0.030929234127446414
2.116,-0.02489585899350692,-0.05468349633327131
2.12,0.03885865797301319,0.10147597611946318
2.124,0.3932994999514229,0.3608163578005945
2.128,0.2534080336032005,0.2143987726141388
2.132,0.11484239376876201,0.08656092258824204
2.136,-0.000909112822849369,0.01999707073297103
2.14,0.17149374487023566,0.17757564691606217
2.144,0.41247688197871024,0.2802375044933759
2.148,0.23959276920879002,0.2138077625199032
2.152,0.11058713367499093,0.04369304224432521
2.156,-0.01721697645431803,-0.07284188032771671
2.16,0.14613705805671529,0.16324129648377944
2.164,0.38043183338645814,0.3547223205841672
2.168,0.34283653242191353,0.2923729125832415
2.172,0.08111261649861427,0.05911928261622714
2.176,0.06100282434710569,-0.006005471776195452
2.18,0.09666383105837989,0.1040299805152959
2.184,0.36474283499990096,0.3304598513352152
2.188,0.20568018277505645,0.24958689581715113
2.192,0.08404988693692522,-0.0026863229884089845
2.196,0.009755519255500996,0.02647197157625099
2.2,0.17889709506787616,0.14274860834991726
2.204,0.4878966126538402,0.3432275825775622
2.208,0.3251439073600274,0.2254976198456698
2.212,0.08872435190599369,-0.001060980840984993
2.216,0.07839608606117604,0.05214423421775835
2.22,0.21708412185271944,0.19340832563580393
2.224,0.43240787546869247,0.330376073597947
2.228,0.2656220270710888,0.22768100624324958
2.232,0.14998930185125559,0.0006710853159565822
2.236,0.003753214717627525,-0.025160368135179884
2.24,0.20131009466134472,0.2011529040983877
2.244,0.3938565206229356,0.330090436704565
2.248,0.2666094022211573,0.23666221740230856
2.2520000000000002,0.09021070013584424,0.09569154749122619
2.2560000000000002,0.07774705274824781,-0.0015190531819427935
2.2600000000000002,0.1937840809926316,0.15731700056199707
2.2640000000000002,0.3899121775397806,0.3568079052470321
2.2680000000000002,0.2813089293324984,0.30697198668790193
2.2720000000000002,0.07767437014292118,0.08776543155758981
2.2760000000000002,-0.043741602078175595,0.04650675932260277
2.2800000000000002,0.2005056099802175,0.14801508639882466
2.2840000000000003,0.42871610786563075,0.36368986453496516
2.2880000000000003,0.3382815753234281,0.21001955309175283
2.2920000000000003,0.10124113527671583,0.020322382504726372
2.2960000000000003,0.022939114672347386,0.03019387023316815
2.3000000000000003,0.16288893574311694,0.13212733933641235
2.3040000000000003,0.3441553317309137,0.3037838291905537
2.308,0.33933052253715107,0.2512215448199202
2.312,0.09715486440645657,0.05633799085996741
2.316,0.09429719402773765,-0.03177053967176543
2.32,0.26866040765202737,0.22297795973862958
2.324,0.32899519360410456,0.31704497392732994
2.328,0.27781883922390893,0.31334312060858927
2.332,0.05306820578788345,0.04654651881582833
2.336,-0.0036397711180956617,-0.07249099914072335
2.34,0.29161530337441377,0.16244115506924578
2.344,0.33200542548245776,0.28412561178641055
2.348,0.2144888858222453,0.310353770956673
2.352,0.10279012760277541,0.057372566275700046
2.356,0.06121175279223981,0.0062265735152859224
2.36,0.18796457803633695,0.09657181544584105
2.364,0.39447226906734123,0.28797936660053414
2.368,0.33213061029663665,0.30123386780030265
2.372,0.13961790029308235,0.14432253016953017
2.376,-0.01479348479365182,-0.07463962727605074
2.38,0.06757425227367357,0.07309940068706784
2.384,0.1988865775738205,0.18998403045350643
2.388,0.023389263108822486,0.06595487724183287
2.392,-0.13932841256087805,-0.15976141486643447
2.396,-0.20971021531402126,-0.12376582533698331
2.4,0.0038047579608794097,0.01124692646173666
2.404,0.2837217631016964,0.265502815727685
2.408,0.39785163474365204,0.3735290417421027
2.412,0.21073759668220235,0.30634591499474095
2.416,0.21480421375824982,0.15617088887970312
2.42,0.3953575533423901,0.2936321635326328
2.424,0.6463285814137003,0.5021934514652651
2.428,0.41773473449875576,0.44364718243759665
2.432,0.1899493652422674,0.16341417907395114
2.436,0.12222132113515505,-0.0317849585057136
2.44,0.07840304125123189,0.12453199263460513
2.444,0.24583306422780274,0.10519803943772062
2.448,0.006577803357764006,0.13442658368816313
2.452,-0.11852232593606712,-0.022845177491026436
2.456,-0.26282573930333786,-0.1503973297162107
2.46,0.006810985597483089,0.04541672806154054
2.464,0.2657894808263056,0.25709097518788915
2.468,0.3103909636115196,0.29547450932187036
2.472,0.039006221167190686,0.1093334553833182
2.476,-0.010741739944921724,-0.00031194844410118317
2.48,0.1653518696516308,0.1166622749706637
2.484,0.3652253263245237,0.3816798055965453
2.488,0.36753381400420604,0.285069907252482
2.492,0.09841878833494475,0.00046412860100576714
2.496,0.004476585932868857,0.010292605065969126
2.5,0.2072458758419381,0.17753247566223362
2.504,0.35769618746237875,0.4189945653219793
2.508,0.3198175716767146,0.28930466860162607
2.512,0.1786685142222083,0.045923377180565744
2.516,-0.007853221978629733,0.037365360025654146
2.52,0.17848430503864773,0.22318789264622205
2.524,0.4779070824556556,0.31400966575719524
2.528,0.3545258316352667,0.3223290245532639
2.532,0.10904617735451475,0.04479486775714167
2.536,-0.032240097516914465,-0.017473469896529342
2.54,0.14330648717674058,0.14344760102391738
2.544,-0.39062962035334586,-0.24835575326122394
2.548,-1.0218472228187605,-0.8643406173804309
2.552,-1.3952147473930208,-1.172836464376726
2.556,-0.9323748070979484,-0.8330922272103498
2.56,0.005171504565389276,0.040914452719121135
2.564,1.0952056570394297,0.8721381210925992
2.568,1.7583423827215874,1.3601564744917694
2.572,1.558813586027338,1.3001300713004886
2.576,1.2754610204287984,0.941795906989011
2.58,0.7231485941876855,0.5198395068875683
2.584,-0.11788486250915153,0.049397556078957086
2.588,-0.8332260842687048,-0.7114608433511107
2.592,-1.3712296028263449,-1.2246497578991513
2.596,-1.2740225732641346,-1.093341230129903
2.6,-0.34863145730473133,-0.365457988472381
2.604,0.4708092789859083,0.3543703439361169
2.608,0.39728952781454074,0.2769446741189358
2.612,0.0600467983653172,0.03634598987662907
2.616,0.022757248705815344,-0.0385062158464683
2.62,0.12284790579774596,0.17033590512778446
2.624,0.40784580450921315,0.4219905451130325
2.628,0.34090670669393003,0.3012977794451029
2.632,0.0717060451365586,0.08144895266202054
2.636,-0.08801521422110858,0.05703546053207584
2.64,0.19156671303355013,0.20347798383389418
2.644,0.3997786628821509,0.34116093832073435
2.648,0.27429206580305115,0.32117950941404383
2.652,0.13547780002604162,0.1400068458604754
2.656,0.10331734740800042,0.04352305510118213
2.66,0.18503883679536529,0.16690126205821387
2.664,0.3581203206071543,0.3091351381915313
2.668,0.2860505754606939,0.26553759422440276
2.672,0.11642552066020323,0.15778640984697384
2.676,0.024426017307206227,-0.0011290556902414269
2.68,0.15221211254542566,0.14966577701479106
2.684,0.3392352368240545,0.2581508152848447
2.688,0.20621177080216202,0.11344120386376257
2.692,-0.18354183623201498,-0.19073585455121556
2.696,-0.27500516815152826,-0.2558980201418495
2.7,-0.16010610733816688,-0.19016926753950142
2.704,0.04401954867353276,0.0621138541184125
2.708,-0.031054135177528135,-0.00013159497173763184
2.712,-0.24562197643354836,-0.16067376997599614
2.716,-0.3516586205298037,-0.32110008794665523
2.72,0.010173692275103452,-0.08120823879547275
2.724,0.18060663673211877,0.119949437646688
2.728,0.1676454075923649,0.15372487864326118
2.732,-0.07469029435245617,-0.10987459261080026
2.736,0.01212321172575273,-0.05214229882509474
2.74,0.17682911910633417,0.16524203504066856
2.744,0.40408967621137093,0.44525560368054123
2.748,0.46367151091285047,0.42425490840010305
2.7520000000000002,0.32746195125740235,0.24447276959589517
2.7560000000000002,0.2242949420441387,0.2104760169241104
2.7600000000000002,0.4917210771730629,0.44741175107748526
2.7640000000000002,0.686673544827401,0.6590189969537994
2.7680000000000002,0.6684004041994711,0.5791316094714505
2.7720000000000002,0.5447609406018504,0.41381533513936114
2.7760000000000002,0.3262213209629642,0.2803850481199195
2.7800000000000002,0.5351567208732021,0.5127049332349717
2.7840000000000003,0.7908096538122011,0.654792996546357
2.7880000000000003,0.5770460843705828,0.5083623588284767
2.7920000000000003,0.32992291113676975,0.17154114394726128
2.7960000000000003,0.2114671261416861,0.060948731959963094
2.8000000000000003,0.3036316174712934,0.3045636470832257
2.8040000000000003,0.39489608742175175,0.4274552150930797
2.8080000000000003,0.2691620862999371,0.1472736042997952
2.8120000000000003,0.02954437277332199,-0.10426797658125359
2.816,-0.08773309756912491,-0.1287610170502765
2.82,-0.05246602981044933,-0.028830193006859052
2.824,0.19477179589031834,0.13291258247904003
2.828,0.0015013124040283675,0.057474676727770124
2.832,-0.26013547471333487,-0.24039448964990137
2.836,-0.21931777600035174,-0.2960316989154711
2.84,-0.07103776008223098,-0.11689289055351418
2.844,0.0957994145319252,0.11966727646691545
2.848,0.10692680116499723,0.05196267501378455
2.852,-0.11243393367259558,-0.10938147192613008
2.856,-0.08990509640828195,-0.16839672942535505
2.86,0.060541836164217655,0.16707875588204743
2.864,0.46087545987459577,0.3451644578503693
2.868,0.3651346642157214,0.370511669855016
2.872,0.0653283610599528,0.0016103768983901368
2.876,-0.014041449682462112,0.04339907144800824
2.88,0.256711848779011,0.16320069491368894
2.884,0.4019487723251962,0.3754996571833703
2.888,0.33319183204320746,0.30221555602023426
2.892,0.19432053954615533,0.12965699358200472
2.896,0.021460454618808272,0.01554778336144019
2.9,0.30949494812423445,0.21729168575786803
2.904,0.40743117823536634,0.3378059435818535
2.908,0.43032416563145015,0.26776508272109456
2.912,0.1602887369301288,0.08881655417889162
2.916,-0.005819029728894427,0.016018717751231388
2.92,0.2645900013862247,0.219696424325964
2.924,0.44879673839666306,0.4136399005167088
2.928,0.4437561146151492,0.29967996318631135
2.932,0.03832275597903605,0.10377386199245821
2.936,0.06856234391162362,0.038396057479251865
2.94,0.18760264824469772,0.17667571662236464
2.944,0.4749502268901621,0.34961633261250913
2.948,0.4009068893020999,0.36401952836453333
2.952,0.10722760642374307,0.10346734187262346
2.956,0.08645942998024522,-0.018676094273775236
2.96,0.22481455924176846,0.2254266623006227
2.964,0.45820093241994814,0.38732440436338167
2.968,0.3482259284701501,0.36340323399051083
2.972,0.11011630213923307,0.08121426327577601
2.976,0.07997778067222383,0.07599609771063748
2.98,0.2506367458851765,0.21307658896941728
2.984,0.4732801521697361,0.3340558752332633
2.988,0.38840114156022015,0.2979662172488292
2.992,0.0833316469294029,0.03907604395245295
2.996,0.06684088850598033,-0.041055268142262444
3.0,0.1810054655880839,0.20431953297938338
3.004,0.40213821109282427,0.4058984424319552
3.008,0.34557580470518523,0.2864180321633836
3.012,0.15884981299819073,0.07594728679755375
3.016,0.006318507418276963,-0.008129800407570692
3.02,0.31070646404959135,0.11940539637999378
3.024,0.42668018395693597,0.3323060694667314
3.028,0.30958776093417856,0.3574488082199552
3.032,0.12113530319977038,0.10170433275186157
3.036,0.09258601976858927,0.0009292229632980528
3.04,0.17343000029320488,0.17055721171616345
3.044,0.3541388783594306,0.37429601468095447
3.048,0.48640206213540776,0.2805675345877892
3.052,0.19418011344936043,0.14001244521623962
3.056,0.028679923790378436,0.03403396469290884
3.06,0.2736625213655618,0.18530661959587483
3.064,0.3694437088777038,0.3722133601602862
3.068,0.3889594597811577,0.2783245311305742
3.072,0.12749775768765167,0.03869053346252898
3.076,0.11371693148744738,0.025021580298516293
3.08,0.32798832364859853,0.23997105108011096
3.084,0.3522572128314901,0.3765156079357321
3.088,0.37224368802372876,0.30797834968981147
3.092,0.19423489566403201,0.10266070041370248
3.096,-0.00029544877985511475,0.08025634069798496
3.1,0.2740446666473094,0.20101009140830448
3.104,0.45879197617953654,0.3563806646729173
3.108,0.3789712294310611,0.2905000790910971
3.112,0.10484201267533882,0.11753935724902179
3.116,0.110463023015471,0.004870269475176801
3.12,0.21427554735091422,0.23211043285530675
3.124,0.34822373293652037,0.41149936874660886
3.128,0.3279301038492446,0.3389689009635123
3.132,0.1901193594481056,0.12992294059240936
3.136,0.09955582130744853,0.06814804089455065
3.14,0.19938915211403516,0.2505116882580933
3.144,0.40711641882976285,0.3265804056663219
3.148,0.35783567708464026,0.2770744494575352
3.152,0.18334421618834698,0.1410673305614621
3.156,0.03131047805915377,0.01330965990095143
3.16,0.19814714054847327,0.18266870126764934
3.164,0.46006490710092723,0.3856891803367344
3.168,0.3350869209965324,0.1731907391164335
3.172,0.2828580070614814,0.11555302089381611
3.176,0.055507238593007255,0.06943321422354948
3.18,0.2616502385949836,0.260267753707935
3.184,0.5029733373422045,0.43343628614449675
3.188,0.3684594494900007,0.31415291152428476
3.192,0.07538088980398067,0.11651584836070566
3.196,0.10662766209232351,-0.0006945368762134169
3.2,0.2683406155710437,0.2353075475286849
3.204,0.46355465765979653,0.41243611316106626
3.208,0.30631521733823,0.30223027897130966
3.212,0.04955497895504209,0.10033546079638916
3.216,0.08274065094547216,0.005320174147939602
3.22,0.22935439858820683,0.16493740485770494
3.224,0.3905185388240308,0.37444577935736184
3.228,0.3280307829467569,0.41477420441689833
3.232,0.056604558727864226,0.15315603447052178
3.236,0.0012177182620563484,-0.06407085777784
3.24,0.005971690130756026,0.006629051383789782
3.244,0.24274005215963257,0.2322307987458862
3.248,0.2539853645694999,0.1290240173121421
3.2520000000000002,-0.03718156244516932,-0.10302852822361475
3.2560000000000002,-0.1736709359219779,-0.08712039410333257
3.2600000000000002,0.21664665450372916,0.18842364471986087
3.2640000000000002,0.48874937651044736,0.42756682622461023
3.2680000000000002,0.533927246351855,0.32576360237669205
3.2720000000000002,0.3259914844482398,0.2548130883547477
3.2760000000000002,0.28377477615107893,0.2704722067339431
3.2800000000000002,0.4960920003901085,0.4889326010236149
3.2840000000000003,0.7096907822515672,0.5616820751546033
3.2880000000000003,0.49795956345956754,0.44054313522231014
3.2920000000000003,0.2257035119413255,0.1443561017726502
3.2960000000000003,0.1855220363284852,-0.01695062295686237
3.3000000000000003,0.16666913396759994,0.14338452129225804
3.3040000000000003,0.3012269606922675,0.20007370593126683
3.3080000000000003,0.16927855432177702,0.07268777368613862
3.3120000000000003,-0.17201957477589272,-0.05452098893386664
3.3160000000000003,-0.18622406673273445,-0.14935254601371864
3.3200000000000003,0.1249406744230415,0.04766980939785643
3.3240000000000003,0.4096773039161812,0.28261593497170157
3.3280000000000003,0.5114017652856797,0.3616292480682414
3.332,0.16355994234566157,0.05320441949271548
3.336,0.04057964371628482,0.07644217335628914
3.34,0.2724493954371506,0.21952028181272315
3.344,0.42346614578039105,0.37676105313670427
3.348,0.38895319191067923,0.3114469551577176
3.352,0.21685545162194622,0.07306355231998574
3.356,-0.00910753483438241,0.11514031715846793
3.36,0.23757022110063628,0.22965302871751944
3.364,0.4631972018915492,0.3157718898048648
3.368,0.40359140053486503,0.33059869165494854
3.372,0.20228862273585563,0.12343873197172259
3.376,0.020052349591578963,0.05366001336106899
3.38,0.23932142412487176,0.19769596060582884
3.384,0.4337062177407769,0.4304962314457522
3.388,0.39201945118147974,0.29386314334552527
3.392,0.1383445905927766,0.06481931369576385
3.396,0.08489543003525776,0.08844268141297401
3.4,-0.40024862076655243,-0.27026849198609393
3.404,-0.8221398953441731,-0.5720607931865902
3.408,-1.149867621858274,-0.8634256705299793
3.412,-1.0385519340578413,-0.8736566737045767
3.416,-0.41095527711282265,-0.30961486150032047
3.42,0.6517489308476172,0.5579767481163624
3.424,1.603183594457675,1.338655087418548
3.428,1.8281746565984824,1.513144403525733
3.432,1.3707086794332441,1.1437813123383647
3.436,0.6869670859470345,0.5268564430596374
3.44,-0.007248598486578675,0.035875066831723
3.444,-0.5960168857875859,-0.3859626185435747
3.448,-1.001086862310651,-0.8783851212552128
3.452,-1.261816505942398,-1.0294111793404046
3.456,-0.7145665215456268,-0.6067214933936341
3.46,0.26773453666501873,0.19413702325943089
3.464,0.3889998570444481,0.3226736088732304
3.468,0.4553153416813677,0.3538117206198349
3.472,0.13022314630871576,0.07065498941324329
3.476,0.04407454191843891,0.04648769139200615
3.48,0.17768586745444048,0.228062785266516
3.484,0.3843524946767386,0.3883025380720031
3.488,0.46215433921420285,0.27452642521946224
3.492,0.08265927193359707,0.0780349021379479
3.496,0.07871045334487986,0.011867536836880445
3.5,0.3134967449762855,0.2685378324585369
3.504,0.4765356630108581,0.3989025197093334
3.508,0.33299937977121963,0.3634845086448178
3.512,0.1423634501885268,0.0767392171521306
3.516,0.1124489638321776,0.09568949045339126
3.52,0.24203285591684884,0.21014623890819573
3.524,0.51145870700557,0.39054427270507625
3.528,0.4298851443763801,0.3369201710937908
3.532,0.22793312281443429,0.23142918776150545
3.536,0.097876506397098,0.018500885898713678
3.54,0.24801966417671725,0.12943007155820765
3.544,0.24012242041557483,0.3447879434756009
3.548,0.17750341584689525,0.12118128770149411
3.552,-0.003408094726787686,-0.13257477709373094
3.556,-0.21799290735824145,-0.1443319974534893
3.56,-0.11178700523826612,-0.08514509122994111
3.564,0.008997810364716446,0.044419496367684864
3.568,0.04536812195381557,0.0642529302111349
3.572,-0.1606841589009643,-0.17320678913832982
3.576,-0.23008588269959193,-0.1633208680166894
3.58,0.03262149105823953,0.006247601925461192
3.584,0.2947151086997821,0.27489221971765365
3.588,0.21001257162188286,0.1867391616668742
3.592,0.03579983427729165,0.0522376158210455
3.596,0.09133561147306819,-0.013038422432094174
3.6,0.3962909815172356,0.2966199004393125
3.604,0.6146538209930106,0.48750156723765214
3.608,0.5745071175901463,0.5044875456425865
3.612,0.3787922804739607,0.33602216561442966
3.616,0.5269188270011114,0.29667000403601496
3.62,0.6673206596823482,0.537907173665233
3.624,0.8521492181969971,0.6616561751948332
3.628,0.6912830680310496,0.6516275634205971
3.632,0.45545668266074957,0.43878567839556837
3.636,0.3678777413679643,0.2672303975924473
3.64,0.6145250406146008,0.5055287481995034
3.644,0.7660085860423814,0.559789774575644
3.648,0.5782334944792242,0.5003101916566011
3.652,0.22824729199682164,0.22659555522363814
3.656,0.035938019422027234,0.1354599023090892
3.66,0.32818679419814684,0.26061810050010376
3.664,0.29082887121701023,0.36349615018280534
3.668,0.12661591830528332,0.1941692279531916
3.672,-0.07950140674324885,-0.13398726926606644
3.676,-0.22515335983517376,-0.15043691891994
3.68,-0.03290676835233197,-0.03005616523180162
3.684,0.17855335622695012,0.1328247081257343
3.688,0.07673109641383108,0.07570987288646279
3.692,-0.1147650743876357,-0.13312083165714417
3.696,-0.2397844635090247,-0.22596899383525726
3.7,-0.02858008720086977,-0.09627067105942375
3.704,0.1847924309085431,0.11806663052792854
3.708,0.16442072051655773,0.08319759187116747
3.712,0.01394947853145858,-0.0864080326273893
3.716,-0.05500241343478329,-0.030518215976020224
3.72,0.29666231517708397,0.1883361781114318
3.724,0.42673227394096636,0.38188703755025355
3.728,0.5012082050804673,0.40844258873998085
3.732,0.18418286172978882,0.10052589722225751
3.736,0.05603854429595191,0.09199745189750541
3.74,0.2707179380259308,0.21372638004749878
3.744,0.37976932558014,0.3823014545864668
3.748,0.3888612973855821,0.29973446511460533
3.7520000000000002,0.09884697361084116,0.11033616119656105
3.7560000000000002,0.017745905538225054,0.04808738012692317
3.7600000000000002,0.23218768395622721,0.12575178556190555
3.7640000000000002,0.46886901520825275,0.3043820120335895
3.7680000000000002,0.4505662196246255,0.2755675318166899
3.7720000000000002,0.23335819066929547,0.12278403853513474
3.7760000000000002,0.17536576595494746,0.07176752333260249
3.7800000000000002,0.25895455041877313,0.33131552847881574
3.7840000000000003,0.4563485985183302,0.3699197536766231
3.7880000000000003,0.4206177671958562,0.3196056208784759
3.7920000000000003,0.09559529601757184,0.13276654662243353
3.7960000000000003,0.11183524630353885,0.08613850976847404
3.8000000000000003,0.27570543914304685,0.2658137308833302
3.8040000000000003,0.4551076925229028,0.38709963609230025
3.8080000000000003,0.33638584396070653,0.26591247197239987
3.8120000000000003,0.05532121102786593,0.2295596617284532
3.8160000000000003,0.11573646353967994,0.08227307696227946
3.8200000000000003,0.3475487757787686,0.24972275354855145
3.8240000000000003,0.3657685461418192,0.42547627688013345
3.8280000000000003,0.37145293393995205,0.33696476637940587
3.8320000000000003,0.12922195002405404,0.1310757250141591
3.8360000000000003,0.04898583563664479,0.09446601464233002
3.84,0.28879437023463894,0.24041649971882023
3.844,0.43381982857130813,0.41023508084269683
3.848,0.46991542584970136,0.42340451172442883
3.852,0.17135567895138942,0.06232697609849516
3.856,0.11934955465607336,0.08296418013524454
3.86,0.2600238150471621,0.18520442869599488
3.864,0.4830652274537358,0.4907904797232694
3.868,0.3811089282943123,0.33705776744496224
3.872,0.21670514507129185,0.11453441324729231
3.876,0.0225906330969943,-0.01891115525823403
3.88,0.2617945241739667,0.23097551712081557
3.884,0.5025387634211762,0.41306040665454313
3.888,0.35476480045882064,0.3109950385241452
3.892,0.12123772568270452,0.14963670651313668
3.896,0.0889066708994202,0.019234513104686678
3.9,0.21341320398636887,0.22067985739689006
3.904,0.4912177149458099,0.4454465998078294
3.908,0.34900665075126114,0.33478108279796726
3.912,0.1651613002715813,0.17212040984544105
3.916,0.04176824894509637,0.015719743868959343
3.92,0.23727664206064403,0.24292605099631323
3.924,0.5148938654999138,0.4495563742041985
3.928,0.4222715967633923,0.2908424216989559
3.932,0.07082282302748082,0.06497011430403221
3.936,0.14675496856353187,0.04825230893305816
3.94,0.362388390232264,0.22852632006080137
3.944,0.45388853030724685,0.39847218722406413
3.948,0.3764494988240527,0.3408227633429978
3.952,0.16008357268139167,0.17660288151940007
3.956,0.03455396509876854,0.018454381606066175
3.96,0.2767175484313532,0.2354519425861128
3.964,0.4667773273364762,0.41296040811611084
3.968,0.33087995540701354,0.3341196126551
3.972,0.2774755844322278,0.14967052660215796
3.976,-0.005364991706951233,0.06244891401131185
3.98,0.20545958839439288,0.19852913695883095
3.984,0.46710370297193815,0.4630430761408777
3.988,0.4368749525760052,0.27448394020692757
3.992,0.10348927583177515,0.1614124211357671
3.996,0.10962195615305484,0.08682554906868287
4.0,0.2588115130145438,0.29192494970731553
4.0040000000000004,0.47611266547185505,0.3852569058925117
4.008,0.4518645131257425,0.33681392665638266
4.0120000000000005,0.2710055920370966,0.11890339776818558
4.016,0.046868672822072625,0.005441569113780971
4.0200000000000005,0.26665706872742123,0.1728698874097947
4.024,0.4333640206968586,0.38050368698449727
4.0280000000000005,0.2887951912511913,0.3370830297744794
4.032,0.1711205943808015,0.10811383894409678
4.0360000000000005,0.09271302729571758,0.10243078204740569
4.04,0.3417927681542805,0.18905686700535954
4.0440000000000005,0.5618693142836062,0.42827912759977105
4.048,0.38256955583564256,0.3551256915753581
4.0520000000000005,0.22867575728372136,0.10036019080279925
4.056,0.1790081968857454,0.06675457508419821
4.0600000000000005,0.1820595762614777,0.32620648836894456
4.064,0.49960757488529783,0.3863778986965543
4.0680000000000005,0.3445358704184507,0.2880359292733278
4.072,0.2015576230669056,0.04104918227355818
4.0760000000000005,0.156612580461298,-0.00011724174409803723
4.08,0.2450366344655428,0.22026121642172253
4.0840000000000005,0.5561424036339868,0.35983009981165365
4.088,0.4700275544322824,0.34272632855123125
4.0920000000000005,-0.053984261669419706,0.09193453606911614
4.096,-0.04027827468982511,-0.06267197980150464
4.1,0.1728148919004771,0.0869793887772372
4.104,0.2011670073766654,0.24511130379647714
4.108,0.22971979962992994,0.13981081542692783
4.112,0.006017572060129898,-0.020520341787254127
4.116,0.058244943612061346,-0.037145350681714345
4.12,0.344782088918289,0.21051510069226634
4.124,0.6215630755270023,0.4277056586980893
4.128,0.5550320119022261,0.4469938714593071
4.132,0.4026933540797899,0.3236104689963637
4.136,0.3398551102069133,0.23563939890592958
4.14,0.5451767449934479,0.4544372087356789
4.144,0.7360515584361229,0.4640298457592067
4.148,0.43896101806964705,0.3555087921733067
4.152,0.07363959218141924,0.06711953195744265
4.156,-0.029313306780056374,-0.07808196205185672
4.16,0.12217318404816743,0.03782140955132723
4.164,0.22259026314491723,0.25770522598313794
4.168,0.06966865457287533,0.12844807360013416
4.172,-0.0394964684863657,-0.04815793930022451
4.176,-0.017596052146188992,-0.06784714023930961
4.18,0.331854074546734,0.19921038899814267
4.184,0.45080017165055153,0.4424815945646921
4.188,0.4774352862848294,0.3537105943977875
4.192,0.26358156493238133,0.13355283328010384
4.196,0.17491017974516399,0.1462305940229796
4.2,0.3410482072234315,0.28922648077511437
4.204,0.4087745625930065,0.45700128685837565
4.208,0.3892262560942145,0.3955491704332786
4.212,0.13437097358344452,0.08650511524420607
4.216,0.09928499979638321,-0.022335597979728714
4.22,0.25009990747069777,0.24596433970546186
4.224,0.4632648802424823,0.38305217806290903
4.228,0.5060612106368355,0.3805481610994739
4.232,0.2515141495241043,0.07517342393894974
4.236,0.03746325490675771,0.06180397331620323
4.24,0.23285854593346805,0.26465469254999036
4.244,0.4741768410261401,0.3862567768536118
4.248,0.4137035969265915,0.31554599848265225
4.252,0.1016101367643397,0.12702776156589496
4.256,-0.3023823117762253,-0.24173574921992655
4.26,-0.7292455662463093,-0.6868085557350888
4.264,-1.0245463053197352,-0.8072247167872852
4.268,-0.9616955461973904,-0.7137773025377069
4.272,-0.46951131324360085,-0.4882320670980126
4.276,0.34612014312321304,0.20671190904234787
4.28,1.2805078073186922,1.0187385298533167
4.284,1.9367337112274692,1.5091121978696127
4.288,1.8459840116435362,1.5788811837480827
4.292,1.0472162912920815,0.7987689337488411
4.296,0.14483373224113572,-0.017877975356797055
4.3,-0.4793167730190885,-0.4563538364369285
4.304,-0.873991312200657,-0.7487764501159249
4.308,-0.9982842219948637,-0.7865565092034446
4.312,-0.9000954840613732,-0.7426851813685891
4.316,0.1762773778931938,0.05749963703539514
4.32,0.27317194030691894,0.2222298314058906
4.324,0.46533659070923417,0.46460672028889394
4.328,0.51039732027513,0.3492895403059192
4.332,0.15620563927126863,0.10858066501082822
4.336,0.06412067621489873,0.13840314216731775
4.34,0.44841448925696875,0.28241787850833455
4.344,0.4110474933580429,0.389698111530312
4.348,0.3391000433327426,0.3094525436573098
4.352,0.20318634252701923,0.11505787729647513
4.356,0.00721886040696261,0.09446736302206835
4.36,0.37927392588182113,0.2355445376160099
4.364,0.4582561123961661,0.5182292111979762
4.368,0.44448895895643725,0.35124985191780034
4.372,0.22457043408948987,0.13125702923311028
4.376,0.0863405197111744,0.10393676354700887
4.38,0.24642317467412408,0.20975294158403793
4.384,0.4621739963509925,0.38891090151131497
4.388,0.49180074576782373,0.3843402600414789
4.392,0.15565469368140705,0.044079449875046764
4.396,-0.022655701281144164,0.022316232518056995
4.4,0.09082845057475247,0.13948300653684034
4.404,0.22350783687212705,0.24066527567241328
4.408,0.2022714207875656,0.05142885584758962
4.412,-0.12202891998525191,-0.08881089087467038
4.416,-0.15447554886832035,-0.20187113395307693
4.42,-0.08835977730487343,0.0011647715496974215
4.424,0.2199065008158173,0.11547378701952107
4.428,-0.04566931154635119,0.07667621514611478
4.432,-0.1259053030416419,-0.1560007060188593
4.436,-0.19315313958173047,-0.21638230976064793
4.44,0.16903026246857944,0.022486444453094393
4.444,0.3832070420041829,0.2841741765800361
4.448,0.3109010922520096,0.21681302336728467
4.452,0.1672453744423191,0.10561191333256707
4.456,0.17881928100243,0.031136261031912957
4.46,0.2742211387333962,0.2724798919836037
4.464,0.5691267574765457,0.5865530545881634
4.468,0.6253744699922349,0.5270729036741735
4.472,0.49063394162101776,0.3318145914070622
4.476,0.42833748966804885,0.3422792076918537
4.48,0.6875766450070505,0.5425058253822141
4.484,0.8673895093135942,0.711287976679932
4.488,0.7305705867303792,0.6519297765311433
4.492,0.532751927444338,0.39126831154068253
4.496,0.4258494775005381,0.30158195128864396
4.5,0.5019287341569211,0.4637108460583673
4.5040000000000004,0.7770550299606546,0.5768116374551178
4.508,0.6056005854749179,0.4321104327885792
4.5120000000000005,0.2896704609250166,0.1689378892425583
4.516,0.05196631074609878,0.10446805052898414
4.5200000000000005,0.24641328537529136,0.16996514080012132
4.524,0.42861934926980616,0.25433733586434243
4.5280000000000005,0.25613150367847753,0.1567249709841626
4.532,-0.01440417935604419,-0.09531117275348881
4.5360000000000005,-0.1493937672324439,-0.243010762259596
4.54,-0.012850138064584874,-0.06663033948813864
4.5440000000000005,0.18989136806497503,0.13070915076994194
4.548,0.14579655631766608,0.02810856604799854
4.5520000000000005,-0.11031806595447627,-0.17263384973817614
4.556,-0.28574530411107624,-0.16901555019311643
4.5600000000000005,-0.022752211716961634,-0.03471408220128282
4.564,0.2930553301210791,0.1716544747584133
4.5680000000000005,0.292752852974219,0.19457102751497474
4.572,0.01773547389759945,0.037720108473573544
4.5760000000000005,0.011726409236214656,0.06952281922816875
4.58,0.36788599313882414,0.21264646083450184
4.5840000000000005,0.5488724549591895,0.4640397129007114
4.588,0.46036574492965243,0.3099781366441503
4.5920000000000005,0.17405720953012577,0.10687964815369908
4.596,0.1421391925235278,0.052056709841797076
4.6000000000000005,0.3345277574961512,0.17978833187561766
4.604,0.499073102550537,0.40117834366775335
4.6080000000000005,0.49447074005629643,0.27870733649773394
4.612,0.18310291620945515,0.08573919711228212
4.616,0.1277120235209302,0.06894649327171941
4.62,0.31868052176329353,0.23347746811553952
4.624,0.5518923454872875,0.4575620955492007
4.628,0.3632845910746355,0.3466812754845902
4.632,0.1503688176389374,0.14064749785277364
4.636,0.08956121889954231,0.1129593395999472
4.64,0.2827958953691906,0.2753625190184897
4.644,0.5013669548841654,0.43404588010570244
4.648,0.37725474409370785,0.37117654663371874
4.652,0.21966904660141895,0.0878350571089277
4.656,0.020005355104221176,0.07644534929983088
4.66,0.43250906130208566,0.2000369714112974
4.664,0.5946989128394121,0.4740669131357068
4.668,0.3669725857482918,0.3868612726905989
4.672,0.23221950730989388,0.055174258005168134
4.676,0.014321299195908549,0.09351656921762118
4.68,0.23296461374322258,0.2397596258263681
4.684,0.5225064203213681,0.3785439733292063
4.688,0.40984147112919794,0.4126657357489363
4.692,0.1713687621726166,0.18219022583717728
4.696,0.08648358814813034,0.03717925327579483
4.7,0.3887292400049291,0.2571523380197129
4.704,0.5141602486605857,0.43136747858074587
4.708,0.30100748458546595,0.3089199144494665
4.712,0.21709096347256412,0.1176567508605448
4.716,0.139994651424179,0.08522427613780569
4.72,0.2702428102054935,0.242920690197079
4.724,0.4899573183280565,0.31353892558175533
4.728,0.41109674152332143,0.3104465829669151
4.732,0.11357705196916892,0.149428351475974
4.736,0.08877621929175539,0.05192425993199281
4.74,0.2978377254498155,0.24280713266560233
4.744,0.4804896392425201,0.32433283290369946
4.748,0.4576726552502825,0.34447772488311057
4.752,0.1851306748229859,0.0951381679237327
4.756,0.07059069713888269,0.03283429799596524
4.76,0.3518639799023997,0.21790463990639422
4.764,0.44586333823635793,0.4009436231910301
4.768,0.38087677029762246,0.3952836965972887
4.772,0.25496894118568353,0.16089160178530315
4.776,0.09777441230514837,0.014148277265632975
4.78,0.22894519359937904,0.25132533189754236
4.784,0.4667735208778571,0.4377702644847577
4.788,0.4295147858277004,0.3082007329222103
4.792,0.20490922774208,0.15638430578001183
4.796,0.13166978459100198,0.054468264821206785
4.8,0.32776462394206074,0.23451218390082534
4.804,0.4094460821071208,0.44086882900036933
4.808,0.4023364232212334,0.38161797746200443
4.812,0.18624907242372216,0.1407063911282137
4.816,0.06378546363994053,0.05224778599939316
4.82,0.30821349739316695,0.2621910709720228
4.824,0.4926621650782109,0.4043116277590662
4.828,0.4292180399595396,0.3263484685032324
4.832,0.16538725354312891,0.15950419155986603
4.836,0.07122668267087419,0.05624560125558767
4.84,0.33775791828176815,0.21340543626567346
4.844,0.47415454292395437,0.4383219783166287
4.848,0.43444582646102275,0.3645390256933736
4.852,0.1450108806731036,0.10928311107755595
4.856,0.07964150736089037,0.11963176790203292
4.86,0.3856421801122836,0.3112764780364652
4.864,0.5556386468408415,0.3979764166989701
4.868,0.4289988586234683,0.33227119779982606
4.872,0.06737891190777312,0.1849257672528749
4.876,0.05618128485244182,0.0857495032013711
4.88,0.2494058323493822,0.20516004641481253
4.884,0.457206670177373,0.4595808164256341
4.888,0.4909792966858449,0.33644659219823975
4.892,0.18836853642589493,0.11599319938274676
4.896,0.1934808621537744,0.05799779866386221
4.9,0.3769801256350501,0.2244319767609559
4.904,0.4388210488068799,0.4112865959823434
4.908,0.37247396490932133,0.2818341434609624
4.912,0.1919735803485874,0.2028262725551088
4.916,0.18644784615778248,0.12607592579328536
4.92,0.3129680641317103,0.2542966155352076
4.924,0.47189267583876127,0.3675491054255418
4.928,0.5191086148612791,0.33092117136791266
4.932,0.23131417105485322,0.16763621036231957
4.936,0.10316641492366795,0.08167687272929663
4.94,0.3253834916266194,0.2730495326455012
4.944,0.5430605511850023,0.47251027913708066
4.948,0.3075225913040306,0.2957727973013506
4.952,0.037664040939354416,0.12092662756206833
4.956,-0.14148822860300553,-0.08877980440117282
4.96,-0.04174138355837509,-0.05305309103812493
4.964,0.3526660956041437,0.20886661990614325
4.968,0.22324457850307075,0.2216466201957119
4.972,0.04900165567133031,0.026758259639849902
4.976,0.053221744647670974,0.03963461457047626
4.98,0.3324831077087695,0.24282415387755032
4.984,0.5716930162376943,0.5324606178695448
4.988,0.6330045988946281,0.5534168157142857
4.992,0.397157297176029,0.3203373512632099
4.996,0.32284412468845003,0.27644543447459097
5.0,0.42441367431531196,0.41530641833572796
5.0040000000000004,0.5314402773987285,0.5292498720162025
5.008,0.46771961712730703,0.33599218139409137
5.0120000000000005,0.12126480843239228,0.05466385232814728
5.016,-0.02794856133147531,-0.12212120193427582
5.0200000000000005,0.07858782757158073,0.018246377563513924
5.024,0.3237696898591483,0.20592363771145755
5.0280000000000005,0.1388686343941198,0.20800588693423852
5.032,0.020391612184844032,0.008751148023625251
5.0360000000000005,0.021316367676555432,-0.019557188700030814
5.04,0.31675283823877487,0.25051486811665696
5.0440000000000005,0.4808003223514644,0.3486259190197924
5.048,0.45530588150853757,0.36475628359868917
5.0520000000000005,0.1681700789064541,0.13856422372185181
5.056,0.11412235830319842,0.03281940686709187
5.0600000000000005,0.2855397511935551,0.24316007731210498
5.064,0.47607036846317424,0.416793170072089
5.0680000000000005,0.3734910732562339,0.257411542384439
5.072,0.2233114776271941,0.12830705227104364
5.0760000000000005,0.07106507032715786,0.10913433038093329
5.08,0.39039238562138395,0.23992687047509498
5.0840000000000005,0.4989666699553642,0.44430720809238156
5.088,0.3818266964425342,0.338782120077821
5.0920000000000005,0.1900999841801535,0.13781379111972886
5.096,0.05976119126154437,0.04945870118012376
5.1000000000000005,0.3096593006466611,0.18400700702028813
5.104,0.49454504355553786,0.4451239998102373
5.1080000000000005,0.4060019995668344,0.40900141951080204
5.112,0.14098624163406778,0.06312706756632988
5.1160000000000005,-0.8439456175701573,-0.7046323765657597
5.12,-1.1993256109112456,-0.8970479825073806
5.124,-0.9273246320623818,-0.7017423206889979
5.128,-0.6549966391720216,-0.38503614753248105
5.132,0.12685131889546059,0.09327972576573172
5.136,0.7858939023878002,0.7000487529902562
5.14,1.6982777828974758,1.3428477255763736
5.144,1.928847937777969,1.5700299169948184
5.148,1.4886905779784947,1.1752098299277236
5.152,0.4027016218375656,0.32080780470022613
5.156,-0.4717972116256616,-0.4003836504860436
5.16,-0.9808242080321193,-0.7429865042282437
5.164,-1.0031344748472015,-0.7784800285570246
5.168,-0.7959641132339009,-0.5851574121124544
5.172,-0.24509314436668211,-0.21156382735478446
5.176,0.018796077722887036,0.058928466806763294
5.18,0.23910228156412702,0.2704018018612536
5.184,0.5135015880530069,0.444103285901146
5.188,0.5089766291909268,0.32905805420269685
5.192,0.17474879482930902,0.19599083613955498
5.196,0.19380371524261053,0.13410685859039684
5.2,0.28494844365656524,0.24104697174836856
5.204,0.4981239764495891,0.4044884042664252
5.208,0.45933352842672753,0.27000404776957876
5.212,0.26320916945882405,0.08952406320257184
5.216,0.10135597892938454,0.019336441375053193
5.22,0.3700748227115396,0.27057801530377223
5.224,0.5596197565265569,0.3922255297575654
5.228,0.47766745684671674,0.35641730950174433
5.232,0.17053742116590673,0.12169888215379954
5.236,0.12041053070167644,0.12528470821688814
5.24,0.31366582198563314,0.21642276009134326
5.244,0.6743178023055963,0.5340088312276439
5.248,0.4123636058746515,0.30418815919875575
5.252,0.09223572062945903,0.14890491027144354
5.256,-0.0064567269639283845,-0.03444323001986541
5.26,0.0943709243992615,0.001774639158613145
5.264,0.20867157184063378,0.18911189916313878
5.268,0.13847545995334914,0.034851397015679936
5.272,-0.1402248018484693,-0.1122789676637096
5.276,-0.2403448748922851,-0.24383003031162356
5.28,-0.17548581618659467,0.030944029871612773
5.284,0.14222523454706593,0.09563293186395783
5.288,0.16552030417327224,0.018996545732556706
5.292,-0.11156770940099311,-0.16457878190188413
5.296,-0.12001465118240266,-0.1904787830049503
5.3,0.06442990651692403,0.10311574607923679
5.304,0.4037953622039241,0.32456984012849466
5.308,0.3614275649987428,0.453098599434816
5.312,0.1304922565354903,0.10168456741659666
5.316,0.1247696012711926,0.1329632176192414
5.32,0.4035151061894058,0.3946447780162284
5.324,0.713104247460475,0.5712395994587967
5.328,0.6840995919601901,0.5551266838370266
5.332,0.4363587605848288,0.384861057721991
5.336,0.3662894896138019,0.32779489049795874
5.34,0.6250897380645055,0.5983613557547813
5.344,0.8803341123623386,0.6976330472468352
5.348,0.8790430209727483,0.6748116218406864
5.352,0.5683812417680574,0.3710703665298358
5.356,0.45658785897441484,0.2610344241160314
5.36,0.525267988099504,0.4424662929935474
5.364,0.6976166371775184,0.618990647672845
5.368,0.5426723997369981,0.45008186590840904
5.372,0.21254971276235482,0.16314820678062922
5.376,0.07888578416243634,0.01042469152192049
5.38,0.2327066247259858,0.15534661715559053
5.384,0.2934512328578695,0.3257658312031524
5.388,0.1747048496841195,0.1221180030031071
5.392,-0.08584370315748803,-0.10609407044689236
5.396,-0.19221664881199205,-0.21093861731443916
5.4,-0.03786686881812564,-0.06539311216877915
5.404,0.1989894126161822,0.02735442670507679
5.408,0.10330531927399628,-0.01583860179605709
5.412,-0.22167690305141885,-0.14723288500415663
5.416,-0.1857791631015791,-0.1448927953300874
5.42,0.03346729788360485,0.07334045254689202
5.424,0.32378947068939673,0.2833764899194572
5.428,0.15410930130687273,0.11774803236068959
5.432,0.0553943892558345,0.11896064587981861
5.436,0.12044938174213526,0.09898880505482019
5.44,0.23751847671116433,0.25071483701830327
5.444,0.4902072254437524,0.4545267529655863
5.448,0.4227970078884596,0.35460833312291806
5.452,0.22673505111459388,0.1365118307828925
5.456,0.1075025530490919,0.053474956842303537
5.46,0.2960252454980413,0.220940305175101
5.464,0.4495904911112936,0.3764038786283049
5.468,0.39812177027790857,0.3466146708371663
5.472,0.13965641657665212,0.15813121080159356
5.476,0.1667046221334536,0.0765588738095642
5.48,0.24338641913377326,0.294968634998257
5.484,0.5135237558885025,0.3906895623977425
5.488,0.4523737976225976,0.38968567586943564
5.492,0.1138804083588381,0.07636572987994764
5.496,0.14310761672111255,0.11997228783146754
5.5,0.3213106759454976,0.22041717500224656
5.5040000000000004,0.5026694602729171,0.3526029861606566
5.508,0.3536525175293915,0.3730673301190953
5.5120000000000005,0.1684327727918546,0.13455183718203775
5.516,0.14587429333038454,0.039796743715686506
5.5200000000000005,0.30717187775445975,0.17470140950451607
5.524,0.5156672233564645,0.3871865755603108
5.5280000000000005,0.35214431136173024,0.3391430562163179
5.532,0.16760337101155942,0.09466476226592058
5.5360000000000005,0.10362569946997008,0.05904075527265783
5.54,0.3301043555816783,0.23748469663178584
5.5440000000000005,0.4304219301218714,0.41933675794958175
5.548,0.38223748242435535,0.3794707496332088
5.5520000000000005,0.08057411084718391,0.10641680564823527
5.556,-0.003712986087343939,0.10810699297872892
5.5600000000000005,0.2848497392364682,0.23223854626843754
5.564,0.468445696852619,0.4692831463976103
5.5680000000000005,0.3603441125544799,0.35243105105736355
5.572,0.1800224839776106,0.14389299697454797
5.5760000000000005,0.11165683605813169,0.08314020921113606
5.58,0.25636699897525456,0.2550092870738928
5.5840000000000005,0.4812870088049376,0.4444398801702639
5.588,0.42769580947670227,0.38920055083508287
5.5920000000000005,0.21024554113326122,0.15573718691131214
5.596,0.15248179404209342,0.056404177385589185
5.6000000000000005,0.2518949528767541,0.27552146302438063
5.604,0.5912163672320494,0.4246597954169407
5.6080000000000005,0.4683839350529488,0.3647690148899618
5.612,0.17193797799554447,0.1526690886881542
5.6160000000000005,0.007977684423352227,0.03580901975553007
5.62,0.3319075051633408,0.18366475048350991
5.6240000000000006,0.43093147164698614,0.3512627788529213
5.628,0.45320172768084743,0.3063972047360396
5.632,0.2116078465670575,0.14733621367992586
5.636,0.04611103347464332,0.10112611953360989
5.64,0.26198909956110217,0.2525631683897314
5.644,0.40754362388731935,0.38151757383795004
5.648,0.3731448704268056,0.359245019417276
5.652,0.16391221469942158,0.08899983050962393
5.656,0.10843203133690238,0.11337327081831461
5.66,0.27244884740388475,0.28134677768573635
5.664,0.500076070224785,0.36471653085056804
5.668,0.3809654086603149,0.3491657894348326
5.672,0.32073373869835986,0.1340367050425645
5.676,0.08618890775263699,0.13710439721258838
5.68,0.17719840269162979,0.22324131884635562
5.684,0.5237554758582561,0.45278052206169317
5.688,0.3596846018781601,0.2715938036322494
5.692,0.21830490796217192,0.12207188037135634
5.696,0.15532219332641162,0.04479959622221494
5.7,0.28720552099598506,0.16862874559241886
5.704,0.543735191567344,0.4415528402337487
5.708,0.36726634386843215,0.3082518164539896
5.712,0.1073368869272059,0.14968352364087423
5.716,0.002208227805385529,-0.007951541044956087
5.72,0.23832030908770135,0.21280870117258957
5.724,0.3759484318239149,0.443125300709038
5.728,0.43684123034141353,0.33197446654981705
5.732,0.18374591493879075,0.13218654421092377
5.736,0.1315478298879664,0.09563556402985879
5.74,0.3632968458285177,0.23952179555078892
5.744,0.5183182657324881,0.44357331108095377
5.748,0.36847160851690486,0.3429924820491595
5.752,0.1700953856198633,0.2188223783791463
5.756,0.09891722015656364,0.0647285032966583
5.76,0.36737994520562944,0.2396850488998453
5.764,0.44988195216077953,0.42280555594880637
5.768,0.4207647271216325,0.3486013430346195
5.772,0.18073357510943713,0.10498520249357467
5.776,0.10860578018874652,0.023837182201940296
5.78,0.24104329638350663,0.23280673066723195
5.784,0.5162449232508174,0.402492463944646
5.788,0.3874156442668817,0.362499517577805
5.792,0.21894847897947733,0.09762991798526643
5.796,0.1839583976330326,0.05583939868170271
5.8,0.3319692785629281,0.19622170591528001
5.804,0.4658594726988788,0.323688827557682
5.808,0.2257138924587407,0.1941874230455103
5.812,0.0013021948973629578,-0.06389336423402268
5.816,-0.15321599175346584,-0.2540823295842815
5.82,-0.03167992705377859,-0.06188876321481247
5.824,0.2827823335160643,0.29358458307282836
5.828,0.3122776263824651,0.2503536498205582
5.832,0.09841608794162283,0.08437127100176718
5.836,0.20738798844603867,0.09702875612133181
5.84,0.31797247232982884,0.41408081462240054
5.844,0.6641828796301205,0.5632289496803742
5.848,0.7483731594759606,0.41232847620866747
5.852,0.43079137945033075,0.38985047295927494
5.856,0.24852536888347107,0.21385384096585383
5.86,0.44072176827517995,0.33121758029049636
5.864,0.5722466587051364,0.3909355253150644
5.868,0.1976189055677995,0.24592015811354415
5.872,-0.023555591633833597,0.017522745492287193
5.876,-0.12424098422825285,-0.12691458686034665
5.88,0.010831845137436708,0.036529971643824294
5.884,0.25234429087210286,0.1330506513015654
5.888,0.23590172126802367,0.1863687180853118
5.892,0.05031794553577475,0.0023685892111570093
5.896,0.050120200612794846,0.09655068175197995
5.9,0.30453488364114595,0.21785811833119734
5.904,0.47639173151390696,0.3797201432991567
5.908,0.4016185156179965,0.27204666541691686
5.912,0.11428796925490825,0.05052828640660677
5.916,0.047385538125771835,0.018335058402314718
5.92,0.2618254684670509,0.1910739177943066
5.924,0.482963368216946,0.42523769010490214
5.928,0.3801908954206972,0.325025906835998
5.932,0.22412602711889326,0.1857632180173719
5.936,0.04076411034919383,0.07266082829472108
5.94,0.2608500602338093,0.19202744284940917
5.944,0.4013457429510765,0.39346435026390786
5.948,0.37073890397884024,0.34192855758960977
5.952,0.09905114930035432,0.07148726290642539
5.956,0.05016119896037492,0.000996316806296492
5.96,0.23172056482664857,0.2630309591252774
5.964,0.5302822653711858,0.4342774593423343
5.968,0.39421621925916184,0.2629830210890946
5.972,-0.5028408776578971,-0.3433150248243855
5.976,-1.1854568366749956,-1.0334652748421382
5.98,-1.254474615204326,-0.9904464265347184
5.984,-0.6525792667966318,-0.5453657980178899
5.988,0.0948200844648194,0.0015295074544331572
5.992,0.6599544149144844,0.504595975261863
5.996,1.303378355763848,1.038435083048899
6.0,1.791093095573508,1.4245415991290409
6.0040000000000004,1.71367276597793,1.3751093584546998
6.008,0.9414311772301255,0.7659219405732391
6.0120000000000005,-0.10450255453705465,-0.13037973472930597
6.016,-1.0142859679713696,-0.8688784529176872
6.0200000000000005,-1.1740368483920118,-0.9860430582985724
6.024,-0.8702857099841189,-0.6754262366618367
6.0280000000000005,-0.3260463420206758,-0.26683454460723394
6.032,0.15410735337012252,0.10914100506526563
6.0360000000000005,0.034352652213378916,0.05650555985672165
6.04,0.2817453269350816,0.23223417245632333
6.0440000000000005,0.43879565961609435,0.34951419386174143
6.048,0.42703104175587225,0.3568216650032353
6.0520000000000005,0.18687382130601835,0.16432107526835876
6.056,0.09598080850128607,-0.013109823115999633
6.0600000000000005,0.33185466194875707,0.22906601339639873
6.064,0.41296454900229507,0.38268733273030686
6.0680000000000005,0.42150673302167524,0.39402150238380546
6.072,0.23934589860772032,0.1487195399174459
6.0760000000000005,0.012309598840581804,0.08726727848598087
6.08,0.2864073901975032,0.27723089425608016
6.0840000000000005,0.39021116080766366,0.3957484194210434
6.088,0.4059466857065133,0.309469177174467
6.0920000000000005,0.22651207748931435,0.16310298252294353
6.096,0.1438777745150111,0.0863422221424156
6.1000000000000005,0.23496502236201355,0.252851218454646
6.104,0.5214360766250306,0.40004934280208676
6.1080000000000005,0.3159166760123516,0.3558092022803179
6.112,0.040765136871171136,0.0866430783344293
6.1160000000000005,-0.1036862825613466,-0.09707201357963552
6.12,0.06742624642997454,0.06398318882167997
6.1240000000000006,0.18468760386285477,0.14496400458395425
6.128,0.04559649204594647,0.05010280185199186
6.132000000000001,-0.17005365943335948,-0.15771009577284167
6.136,-0.21627386044070118,-0.23223269252812534
6.140000000000001,0.030664533167784128,-0.15455552401033018
6.144,0.20358432416921474,0.09645961209318367
6.148,0.08868948340781597,0.10038648669427488
6.152,-0.10668009305047535,-0.14957802343053397
6.156,-0.10402728683553569,-0.13571218645326774
6.16,0.10707329396894306,0.044887709077276045
6.164,0.3580157215585245,0.40311219679237287
6.168,0.33464696111932946,0.312203125165607
6.172,0.22984791093309137,0.2014453715520186
6.176,0.30322733730283474,0.09768504896516846
6.18,0.5250656919478005,0.41732056798761197
6.184,0.7004400694894799,0.5907424861200457
6.188,0.6811859886894048,0.5579629779316777
6.192,0.49811888495250517,0.3847620520365723
6.196,0.4856749207545382,0.40941867556440664
6.2,0.6512444679551442,0.5197776108455279
6.204,0.8075621007914444,0.6767511997493013
6.208,0.7500868207596353,0.6226609873092337
6.212,0.4919875899743129,0.37432703503275316
6.216,0.277786992302529,0.23097714787171997
6.22,0.4721643039579546,0.42251933299862726
6.224,0.5119733470782605,0.5705454495774451
6.228,0.3818933443123811,0.3655722178230417
6.232,0.12140648550678546,0.13212614481449017
6.236,-0.1199533809255357,0.031486237765981
6.24,0.08284894196446582,0.07826607166265596
6.244,0.28673331360468124,0.23130980881672894
6.248,0.11952007526822465,0.16522302675532624
6.252,-0.15686809344793243,-0.15796713016606329
6.256,-0.24862322350172592,-0.2110678232968038
6.26,-0.016058985199351013,-0.09349158474281322
6.264,0.12160553189381959,0.055037784508316326
6.268,0.07264483167938804,0.0422009110584933
6.272,-0.17348161309384397,-0.17375886602382543
6.276,-0.18626371367497496,-0.13391294448575503
6.28,0.16170509700341584,0.08160743579685695
6.284,0.38839117017010677,0.23701395225346397
6.288,0.3250288848851691,0.25123130739075955
6.292,0.15087904445506767,0.09174858465189825
6.296,0.15572482692667505,0.04819621717825891
6.3,0.2766621322500964,0.1871459890578174
6.304,0.42821194086918646,0.4033586710004814
6.308,0.5039181805623488,0.310041393180302
6.312,0.1934141351030456,0.060699317071076765
6.316,0.13072258461276381,0.10216762199630365
6.32,0.33747406023570675,0.21854086013714727
6.324,0.46764943066480663,0.39186188559564766
6.328,0.47929726649044013,0.2886078060384284
6.332,0.13375095231021145,0.1058671408112776
6.336,0.12355902420586867,-0.01323724056304719
6.34,0.22727333023839835,0.20985767709981895
6.344,0.43558454849927153,0.33361848466515587
6.348,0.357550992754095,0.3975880578888664
6.352,0.14681096841690458,0.07081469924170877
6.356,0.128949601737276,0.06639827437110946
6.36,0.2902511131092598,0.13640390334045638
6.364,0.4697807127813981,0.4830773739067369
6.368,0.34577047517829645,0.3208569555733119
6.372,0.0587052955746198,0.1566333724223194
6.376,0.048595591332236586,0.08658025077781858
6.38,0.30511102899318393,0.23299965506669576
6.384,0.5210547187860983,0.3974839172579918
6.388,0.396518025694887,0.3264202987808395
6.392,0.1631594107194752,0.140614558485884
6.396,0.06480176401461653,0.11159413014409668
6.4,0.34075231702689995,0.18033513877797494
6.404,0.5642092053489784,0.4172585563878553
6.408,0.4620362110520827,0.3296850253841119
6.412,0.18091551478772805,0.0717193867678562
6.416,0.003847887125799976,0.03994967274575539
6.42,0.2921564454282517,0.22936191299578546
6.424,0.41515137071769254,0.36482099537961826
6.428,0.3798873377025362,0.2975626559829955
6.432,0.09586841724878359,0.15236245491807576
6.436,0.055857559193928985,0.11864037654403024
6.44,0.2852708425450219,0.22538255973486576
6.444,0.3891752657708035,0.4057705723282377
6.448,0.514589487499346,0.33997060995546646
6.452,0.1337288083189443,0.09409725316510947
6.456,0.03974098609534166,0.024265728677280274
6.46,0.2580499563288196,0.18187108299689353
6.464,0.4639689056882587,0.3908172881159269
6.468,0.41929948352957613,0.29491886771193326
6.472,0.164646731944927,0.06112809400133643
6.476,0.11241491886134708,0.0376452155387399
6.48,0.35390623813251415,0.2222387905831264
6.484,0.4592091769728584,0.3655640463322062
6.488,0.3545941218816937,0.27814918458010046
6.492,0.11213357687321762,0.16115841170165693
6.496,0.14144787141168788,0.09990620255304422
6.5,0.2373756678186274,0.2475186833254366
6.5040000000000004,0.4938968982479919,0.4068183872442181
6.508,0.3599862761425273,0.3451309853745915
6.5120000000000005,0.16328031972919707,0.09635504617235918
6.516,0.03952769504176041,0.02209189525015696
6.5200000000000005,0.30591318318930905,0.19457242651287165
6.524,0.45476921785281715,0.29264621834867094
6.5280000000000005,0.25765584408739073,0.278141914341117
6.532,0.12851305257066803,0.10176399121595885
6.5360000000000005,0.06422047542969685,0.014273400140498722
6.54,0.33508708359318207,0.20915752055658246
6.5440000000000005,0.41303729204611883,0.4292115020763124
6.548,0.3638933963685236,0.32855997997755637
6.5520000000000005,0.14397455460532818,0.03456305379767362
6.556,0.03688801070133021,-0.017793814293673847
6.5600000000000005,0.21984817841165874,0.170391313139852
6.564,0.4876366808501037,0.3767082285014816
6.5680000000000005,0.359460108783338,0.405812097962102
6.572,0.11015857965573084,0.16731917806232835
6.5760000000000005,0.12982886140802696,0.08603770292038972
6.58,0.30192773696973807,0.1601155859892245
6.5840000000000005,0.4048276178004424,0.37440052987232203
6.588,0.3233109801657895,0.28689241129169524
6.5920000000000005,0.17595183707314568,0.08197010624045174
6.596,0.17114012183892197,0.027156834913934412
6.6000000000000005,0.19801170242485547,0.25195889212304057
6.604,0.4593680715183698,0.3879226860305568
6.6080000000000005,0.354595925959714,0.2734089090390973
6.612,0.21185440120407753,0.14524303913038886
6.6160000000000005,0.079461850816016,-0.05772868303551694
6.62,0.2601401679752732,0.23164163469423454
6.6240000000000006,0.49418747223605214,0.27357621866385273
6.628,0.35826523118165887,0.3481949504331402
6.632000000000001,0.08556103363906142,0.1646665368816795
6.636,0.10335504980647808,0.009844734682275778
6.640000000000001,0.25136477569447035,0.2136779087353636
6.644,0.4772128937490209,0.3930138278726178
6.648000000000001,0.4061943853231475,0.4381299582142003
6.652,0.15983749964775837,0.13962366757621245
6.656000000000001,0.04701128531389537,0.05765289639888738
6.66,0.3162714264447064,0.17636427630863707
6.664,0.3716138072015507,0.3155112129968798
6.668,0.23164279075377972,0.224201201250175
6.672,-0.09702507821919462,-0.16162871429499703
6.676,-0.19049328500743773,-0.20338976120665594
6.68,0.026671142087521,0.046939382435818536
6.684,0.26557259345803613,0.29383428237934206
6.688,0.2086230656502261,0.273814115453568
6.692,0.17834404742226426,0.1218701808821464
6.696,0.16411526789753256,0.10950422419871655
6.7,0.43709541265458246,0.28179079484423164
6.704,0.7724531642000444,0.6075171933731425
6.708,0.6470962424563126,0.4449307045748728
6.712,0.36887085769268696,0.3340389844159811
6.716,0.23017868653100526,0.17131494839538267
6.72,0.332291988217018,0.2738663669118199
6.724,0.5291506173120976,0.3424198130804496
6.728,0.16009387304877032,0.20832803392731256
6.732,-0.04737858243918866,-0.07278409908934716
6.736,-0.27940554112025506,-0.1472708097255169
6.74,-0.04254674512835625,-0.004076497551642891
6.744,0.26176741808145615,0.20089807901042617
6.748,0.29267724571183346,0.18323624221724652
6.752,0.12347770853725365,0.05126930799771936
6.756,0.1823998309519874,0.07767970388256623
6.76,0.22855063379163476,0.27581441249936167
6.764,0.3551496316882277,0.4470969008532716
6.768,0.3888710537217778,0.35934918820106854
6.772,0.09903149923403681,0.1466302737111566
6.776,0.019586239338306048,-0.003599400748325425
6.78,0.2790436038837807,0.19974150775759658
6.784,0.3914267369289183,0.3290848171858314
6.788,0.391845984809131,0.300086114503409
6.792,0.1259511790711217,0.12641392272479648
6.796,0.06638623764997308,0.0704147503422337
6.8,0.26277858730493425,0.20754396856345034
6.804,0.5070510289818322,0.3633822237566004
6.808,0.4099559170113041,0.2811001335680405
6.812,0.22167978230367885,0.10511144334839286
6.816,0.05363425977247429,0.12719074446608758
6.82,0.211571993749383,0.24932337596591458
6.824,0.5084994711728277,0.3937514699139466
6.828,-0.17873317259400373,-0.08371560457615185
6.832,-1.0829119648918744,-0.8220038707666585
6.836,-1.4647599180802036,-1.192737225973379
6.84,-1.0968047527150058,-0.813641328789327
6.844,-0.15603010933299014,-0.0573960838652749
6.848,0.6093305662222364,0.5816793563781354
6.852,1.161289098718297,0.9534151980406423
6.856,1.4905208976986224,1.1863926520398105
6.86,1.6593541249783834,1.2746448211064558
6.864,1.2364169743132438,0.972962418236288
6.868,0.2995248815624036,0.2148739233437318
6.872,-0.8349918093485258,-0.6782969372714409
6.876,-1.4008470732650045,-1.1072154252109696
6.88,-1.2765278852515138,-0.9086256666103567
6.884,-0.5055943638720323,-0.3370416377382398
6.888,0.3165963177615207,0.32901714131441545
6.892,0.19073858713675426,0.027571890875836252
6.896,0.06832694406825211,0.0752367167144295
6.9,0.2619283113627528,0.2414128581687496
6.904,0.4254063436842491,0.3454114145168614
6.908,0.3560021582868875,0.3162903749871815
6.912,0.07676065746336264,0.0921804320427211
6.916,0.050301393572885766,-0.03316000178442894
6.92,0.2903583501756173,0.22075124599738358
6.924,0.5059897509101684,0.3767959202479151
6.928,0.4239917787836701,0.3178083408716217
6.932,0.10753152470689771,0.1295428461747357
6.936,-0.021363883700481145,-0.02974620363706311
6.94,0.12392060313200504,0.1402068617113378
6.944,0.35661626903930443,0.3439478805714382
6.948,0.32005256949614813,0.35691806792494024
6.952,0.20530648970398363,0.12124549543834406
6.956,0.010636972427351316,0.004733478275224676
6.96,0.3202869522715089,0.26322330336069316
6.964,0.5365103606981207,0.3434537371537188
6.968,0.22967681278005203,0.2650009274955
6.972,-0.00917873081580857,-0.00392631772174077
6.976,-0.19509478419679702,-0.1776379611088487
6.98,0.005380699911675765,0.034015356180810745
6.984,0.18440970143230798,-0.016786674032892385
6.988,0.009410487412553771,-0.041753443553584166
6.992,-0.2542962728342699,-0.22131993723364438
6.996,-0.27646765835430664,-0.337094307340599
7.0,-0.04193297876719538,-0.11290164915489143
7.0040000000000004,0.053581348356847455,0.156414985421482
7.008,0.12168517995809564,0.0767767162829856
7.0120000000000005,-0.11022893011303911,-0.10354733485878156
7.016,-0.1497841620900116,-0.08374685111051758
7.0200000000000005,0.17766640312938659,0.12214079547264448
7.024,0.4817379777702311,0.40292737833123576
7.0280000000000005,0.43472038047770356,0.3002009273632984
7.032,0.1254714865231109,0.13114421832105672
7.0360000000000005,0.2527428362317275,0.17417825981049437
7.04,0.4143567589745596,0.3423695421762486
7.0440000000000005,0.6706821773283735,0.5334513408459596
7.048,0.7079248210658448,0.5570332039436362
7.0520000000000005,0.39595962802000595,0.336111761916143
7.056,0.42079209194617134,0.2957861577549309
7.0600000000000005,0.5678286297001812,0.495304925373956
7.064,0.8534992424029659,0.667178000217834
7.0680000000000005,0.5993660033250194,0.5467105225807949
7.072,0.35086895468674856,0.19954558772805833
7.0760000000000005,0.24372143619796868,0.27963862321815663
7.08,0.3836465773411084,0.2959248096527975
7.0840000000000005,0.5653946076759045,0.3934294261521826
7.088,0.3619965974339039,0.2660495089478104
7.0920000000000005,0.15146534062699746,0.03130625263232766
7.096,-0.10390356331770073,-0.14728334506096485
7.1000000000000005,0.03446003245608954,-0.003647752271328842
7.104,0.15932763345192208,0.20595397638301
7.1080000000000005,0.011970290062286157,-0.019791281918231568
7.112,-0.10885951688500424,-0.11596650816686406
7.1160000000000005,-0.2269696194498912,-0.3523998359143507
7.12,-0.07889747497623564,-0.06763465147658995
7.1240000000000006,0.15094894252605,0.047427028175101964
7.128,0.03079545786756244,0.04134918297289167
7.132000000000001,-0.18706650972748887,-0.11795279621360774
7.136,-0.19786809283357606,-0.1810894582817288
7.140000000000001,0.06548676335986947,0.03937015933476271
7.144,0.25363096377179634,0.2283121405021089
7.148000000000001,0.23321349101201838,0.29113349611365147
7.152,0.17807748949359456,0.14149317752593596
7.156000000000001,0.16125077507547575,0.05859948056817224
7.16,0.25501392048235527,0.1517841271186715
7.164000000000001,0.41964758507587835,0.39786494458109734
7.168,0.3742813646324472,0.2503051485768263
7.172,0.12398518899854019,-0.005557325395512042
7.176,0.05293725355868034,0.030390540623977662
7.18,0.25508533751978524,0.22614919526719224
7.184,0.4472158778442362,0.3728237594080438
7.188,0.3147286201999322,0.32310215023362876
7.192,0.19291574489713448,0.0210807407620938
7.196,0.11260527468515492,0.003572110771660855
7.2,0.2136331847589183,0.21616558962752838
7.204,0.4712886836348734,0.38236998297121616
7.208,0.30910734066749435,0.25921161838842266
7.212,0.08898703315381817,0.04031832726121369
7.216,0.09538664898837818,-0.11052506143155437
7.22,0.198110422878192,0.13411902895521396
7.224,0.40659990561022885,0.3753715816328898
7.228,0.3348742847855685,0.31610473340339845
7.232,0.14044230146672732,-0.015521984407070727
7.236,0.14272869938857463,-0.02611254149261974
7.24,0.23209821095693095,0.19263619677400082
7.244,0.3962350774615965,0.3141292577672967
7.248,0.3360503393542201,0.27416601040229266
7.252,0.1586302109577618,0.07311786239205283
7.256,0.06848649960145863,-0.0815092502682873
7.26,0.21952099016120943,0.18772342874228265
7.264,0.44896698181564865,0.3479523346971882
7.268,0.35594650973881714,0.3183991067878494
7.272,0.10916672573953022,0.09389296829297511
7.276,0.07014330592663837,-0.04910971810866313
7.28,0.23593233863128202,0.2597749013321298
7.284,0.44054011718427133,0.4200674629324491
7.288,0.31478390276890245,0.31378677671676003
7.292,0.18264166020777822,0.04375861962755647
7.296,0.00382360634446232,-0.060314398202468936
7.3,0.2607515556679798,0.1613095402093626
7.304,0.40635957205452855,0.37434923558396827
7.308,0.43512937316510053,0.22549868121877376
7.312,0.18006974015326954,0.1337930994103291
7.316,0.05812074708003499,-0.015324174868093128
7.32,0.2306340154432422,0.19900251205870328
7.324,0.4224410911067009,0.4087262554578286
7.328,0.38614067364190585,0.29277114705106777
7.332,0.14252090933455377,0.05595052983088815
7.336,0.042572687741307874,0.05121941853996707
7.34,0.2148135026826533,0.16138929336248548
7.344,0.4306379991837109,0.34872632480158694
7.348,0.35185673276598906,0.263843089568101
7.352,0.09664859858277375,0.10145996318771001
7.356,0.05078281547078105,0.04776402729095643
7.36,0.19401563999644267,0.16945948895062155
7.364,0.2900433331552506,0.3729542865171865
7.368,0.3229523278783706,0.30334709780502905
7.372,0.08669973565478584,0.12300712356872391
7.376,0.050523978308029696,-0.032921223842430375
7.38,0.3193376629744285,0.18197884521543717
7.384,0.40116820057625424,0.3617159797381645
7.388,0.310382855896711,0.3015276839051363
7.392,0.18370539395654337,0.11409057783337204
7.396,0.054510907956438676,-0.006583060086761936
7.4,0.2558632217491537,0.21590538141377974
7.404,0.3404635951618091,0.3150127716227658
7.408,0.29770826664754374,0.31994873897490994
7.412,0.10685226583180742,0.04950666240687558
7.416,0.05526306360914774,0.02288612130551768
7.42,0.23912603914960684,0.28693378858591334
7.424,0.404378609244818,0.35808781900674674
7.428,0.2345329023129486,0.25101885107306965
7.432,0.1532453642195373,0.0763090130578618
7.436,-0.016659709786831595,-0.021609923022697083
7.44,0.24659585753900906,0.135777319620489
7.444,0.34280168160159963,0.42781082502092344
7.448,0.37297423418115044,0.26682128030282193
7.452,0.1622149043491632,0.07942706402146188
7.456,0.07190604487137517,-0.016179570210869357
7.46,0.2626684657596711,0.08728024625192496
7.464,0.3954503201450108,0.37313023118751865
7.468,0.29729600763664304,0.2824548527678719
7.472,0.05015764749833209,0.07252973292378931
7.476,-0.020473638843051534,0.038790551072032095
7.48,0.22626183084691473,0.1799863819423462
7.484,0.4186563132786377,0.40721729341181834
7.488,0.2547765611273384,0.28212779146992567
7.492,0.024841953258063362,0.12763036783884002
7.496,-0.0633222711355217,-0.09665206775867625
7.5,0.2816593614870722,0.15198366477688888
7.5040000000000004,0.40353366833181153,0.3381129037587456
7.508,0.33971436311831094,0.34934745210567986
7.5120000000000005,0.01798596859027507,0.11800681250294384
7.516,0.03180283637889056,0.06427169754082178
7.5200000000000005,0.12740206776495475,0.07618208439421956
7.524,0.20708845621917144,0.12911757074162858
7.5280000000000005,0.035398829847049784,0.12032239860676316
7.532,-0.11220076630108139,-0.1175720834097183
7.5360000000000005,-0.200080933059275,-0.2785121663360587
7.54,0.05938516212867907,0.07375255717298679
7.5440000000000005,0.3051643156815683,0.3165763045529486
7.548,0.2970339464346661,0.3383001239482357
7.5520000000000005,0.1998559932436589,0.10917754355762471
7.556,0.13074732339275585,0.14628060449166008
7.5600000000000005,0.3714689846086676,0.40642828829888117
7.564,0.6160554470107688,0.5643843423537948
7.5680000000000005,0.5259410245497651,0.4848010041222075
7.572,0.26913213875811043,0.27500836997766553
7.5760000000000005,0.10982239873346585,0.10719454797297678
7.58,0.19269889624204425,0.138675664943167
7.5840000000000005,0.3176750346032392,0.2365354046441832
7.588,0.1913907144347867,0.10145520234931686
7.5920000000000005,-0.03197294986337479,-0.15851328212862856
7.596,-0.2517511082880287,-0.22880205480435653
7.6000000000000005,-0.10259031622037745,-0.04158069568344515
7.604,0.2602611345362033,0.18211444073178187
7.6080000000000005,0.23508673651729017,0.16264056705367008
7.612,0.11940167063204665,0.045526650627091825
7.6160000000000005,-0.012247960425712846,-0.03639924803974807
7.62,0.20159387586316754,0.10729788442015192
7.6240000000000006,0.4010798307904955,0.24369847309264778
7.628,0.38190999061325215,0.2963298268432255
7.632000000000001,0.009210243167122836,0.14061410360043197
7.636,0.0809598845145481,0.06113787945999337
7.640000000000001,0.2719753140543502,0.11466984776957628
7.644,0.448140462906539,0.30487570630389255
7.648000000000001,0.26406466909246146,0.3294280900710428
7.652,0.07561560895135466,0.05836192995930865
7.656000000000001,0.09233707601638579,0.049492692843891926
7.66,0.20863992379324434,0.14602798063140612
7.664000000000001,0.4047065548078447,0.32387053581109637
7.668,0.32720485960174317,0.2810083484070361
7.672000000000001,0.10148780278344706,0.05541267537890033
7.676,0.09062639722652041,-0.03016864449750443
7.68,0.215713957793802,0.14660296820841584
7.684,0.43595551399739196,0.31737657333339825
7.688,-0.7325927842054709,-0.6330584792677412
7.692,-1.3087240408073064,-1.1241405353105713
7.696,-1.3319331870772182,-1.033483112254645
7.7,-0.5844693415595712,-0.5032242862202649
7.704,0.4075797844386193,0.32690909442812055
7.708,1.1538191669417106,0.9018007725855205
7.712,1.4155579789576016,1.1788597575150175
7.716,1.432001905809691,1.095735116206591
7.72,1.1507141654457873,0.9234950324004073
7.724,0.6241516542432288,0.4295589500110999
7.728,-0.35713813533340133,-0.29078454094547956
7.732,-1.2963016179164493,-1.0245973968802011
7.736,-1.508082438688012,-1.173014438818404
7.74,-0.9491216469643172,-0.6965597018020183
7.744,-0.04167807677878321,0.04317595917493255
7.748,0.2769903399342683,0.24666093492615543
7.752,-0.004366983549247458,0.04626374308960657
7.756,-0.00914926807986084,-0.030275725102458316
7.76,0.16039285362390657,0.1407357637945521
7.764,0.36542221503667544,0.3684532468988654
7.768,0.2903090801494819,0.30257376724848534
7.772,0.09727368819916365,0.04845094330015155
7.776,0.012601715969757253,-0.0004727209046544792
7.78,0.1394496162763915,0.21556996032985765
7.784,0.33054759097605274,0.33380507609355325
7.788,0.29711483199512695,0.23029631732891653
7.792,0.13607174152979068,0.09606494398865242
7.796,-0.015968234670881095,-0.008257181075059728
7.8,0.2104239502575505,0.13777117855072207
7.804,0.39040616243228465,0.3248298805147524
7.808,0.2744853475784247,0.2246267734075404
7.812,0.031715150681513406,0.026621536683302277
7.816,0.007259468555674456,0.0738906624839602
7.82,0.26523217674143185,0.20310496429927308
7.824,0.25192636895453974,0.27206985864562505
7.828,0.24103427372301325,0.15703508563891588
7.832,-0.13202558735400335,-0.13078302724071564
7.836,-0.22550417180274904,-0.29267416579797534
7.84,0.002691596217962902,-0.17682494824747846
7.844,-0.09789060566920066,0.06283695061332402
7.848,0.018344708025148912,-0.0530330127002224
7.852,-0.27176066579857866,-0.2952336786552288
7.856,-0.36109008847156876,-0.3323371920653153
7.86,-0.12409424113934107,-0.17786655123532918
7.864,0.03570234645168031,0.09108089928146124
7.868,0.12772406192128125,0.024225957999068865
7.872,-0.08462219318247556,-0.12577322536662927
7.876,-0.1869304964855799,-0.22308698273818103
7.88,0.2003942871783373,0.05238198878508187
7.884,0.36157037966482297,0.326446208870152
7.888,0.3733972586697545,0.24453469784964327
7.892,0.25348081950311474,0.17533114001523706
7.896,0.14031847458200242,0.0906449451326322
7.9,0.3611363179968928,0.3407992404505993
7.904,0.6045101746631231,0.5460390564795295
7.908,0.6564448421656913,0.5324153779862847
7.912,0.43492311641397585,0.35053729449859405
7.916,0.3308638087398453,0.3256682519195751
7.92,0.5208355929427114,0.38234086691868213
7.924,0.5602920281800801,0.5797399572570283
7.928,0.6306131612977971,0.5224135095568144
7.932,0.34768333335488805,0.20251309710575313
7.936,0.05572017878126542,0.07156321060985629
7.94,0.28563286796293286,0.1708739151341113
7.944,0.3298465547108,0.3052626129038558
7.948,0.2911285908861754,0.22720972997402808
7.952,-0.0027880506347965003,-0.06854218880554248
7.956,-0.1872077078182771,-0.23772854260267234
7.96,-0.06958477241746541,-0.07950990032275908
7.964,0.08780551642144926,0.12316155337626752
7.968,-0.029132849069619347,-0.058891808668826616
7.972,-0.37438922916619405,-0.2793985941967248
7.976,-0.36527630490836094,-0.3198443391480708
7.98,-0.19667104454111503,-0.2337143484893005
7.984,0.0857855369520879,0.016992338335604616
7.988,-0.10101203265781929,-0.11103032203601702
7.992,-0.19256603789409782,-0.15407017821668517
7.996,-0.2466755177650743,-0.14241319105782985
8.0,0.18024570149229824,-0.021443939783889556
8.004,0.24601055858164758,0.25035677544079005
8.008000000000001,0.20230133001421094,0.2480938169112136
8.012,0.12539055436558963,0.11295060600626447
8.016,-0.08679645545404291,-0.06594677848504854
8.02,0.2559531608704,0.18285467227187044
8.024000000000001,0.45873411176838974,0.3157517811133451
8.028,0.27941725110982996,0.2727402468720437
8.032,0.0839736300312825,0.037144334813192605
8.036,-0.08407874105663903,0.023655398656926695
8.040000000000001,0.2816916131979856,0.13632253173942618
8.044,0.3209653646556347,0.2823524811909974
8.048,0.21509851039048727,0.295047426692316
8.052,0.16368304728339234,0.06812794360114942
8.056000000000001,-0.001878072034739258,0.011168811435875774
8.06,0.23894848971541421,0.16285995981686152
8.064,0.4444697814699113,0.3287846219834512
8.068,0.3339842699747705,0.28703126087739894
8.072000000000001,0.057159550483155394,0.0024255581163232127
8.076,-0.026420785269437294,-0.01568877608071213
8.08,0.2013297664191186,0.12679034054406563
8.084,0.367671678338893,0.30629184920715663
8.088000000000001,0.3048044161538426,0.27052681179202653
8.092,0.059435138422472895,0.04157708878038795
8.096,-0.004886904687572722,-0.08995070576792331
8.1,0.17742541699625528,0.1465819061216096
8.104000000000001,0.3863259338418821,0.26308797261709815
8.108,0.27565269726361935,0.21445601083898616
8.112,0.09840786115515363,-0.051614307410673826
8.116,-0.04339429706341939,-0.024112141775468363
8.120000000000001,0.21108736955926397,0.023642270338861363
8.124,0.39211761043389437,0.2716893578071331
8.128,0.27476186604867137,0.23747256177922776
8.132,-0.06290042706460525,0.013550641770805493
8.136000000000001,-0.029230947829642792,-0.01420207882673
8.14,0.12854977858197864,0.07074631534276823
8.144,0.43364944615528933,0.31154641454805243
8.148,0.26055209281031605,0.17133879211643016
8.152000000000001,0.13830539676448314,-0.022534442809115672
8.156,0.06197688598945128,0.016730688667097184
8.16,0.17037379875740602,0.11996225850505829
8.164,0.2960450452717825,0.3364786928939487
8.168000000000001,0.2861888324946735,0.26429746981681346
8.172,0.1428184949563141,-0.08912843637106482
8.176,-0.1267799181681288,-0.020394062485766994
8.18,0.15166028123231096,0.1465515123935056
8.184000000000001,0.2848068490572073,0.369291246555192
8.188,0.2764814481696186,0.25963670104336667
8.192,0.02921721671029668,-0.018508882193163816
8.196,-0.011134623422939399,-0.039809248447689134
8.2,0.132501442924974,0.0732961567367636
8.204,0.3181099334279082,0.3160666491291497
8.208,0.2378098536554434,0.2946253174529595
8.212,0.018726041960738363,0.028890903348697136
8.216,-0.04550698188955569,-0.025857320738765604
8.22,0.08832516970548658,0.11005955803953221
8.224,0.41564721830158546,0.3003091292626036
8.228,0.18503587619891046,0.2260589247770795
8.232,0.14692771505155852,0.023003060675017888
8.236,-0.10359438660736585,-0.07531036664976545
8.24,0.09627493854595853,0.1116265261597874
8.244,0.3228132593200031,0.2927413215456695
8.248,0.39991144320778493,0.22693141116908755
8.252,0.019091971927154498,-0.0036031761750174585
8.256,-0.029880715617557754,-0.11953886016191402
8.26,0.06849953748226605,0.11717599764154396
8.264,0.29036033133314554,0.2596022705282463
8.268,0.13082388433297842,0.29737212447697314
8.272,0.011230635504045738,0.006481718777693525
8.276,-0.15436438297919278,-0.05154294238675572
8.28,0.20091764726973535,0.13449499593719363
8.284,0.2893192235443483,0.2676870910109209
8.288,0.2883664876013469,0.22903377252271295
8.292,-0.0006722020791954456,0.05042260389999645
8.296,0.021846542771255043,-0.021478137279363825
8.3,0.11578912190810992,0.09364171574157364
8.304,0.35124127647379333,0.2811248686854264
8.308,0.279884254977499,0.20150494081870587
8.312,-0.005858651111034209,-0.007213220511453084
8.316,-0.04382544525853324,-0.012327808253387848
8.32,0.2215516314268299,0.12050012000417323
8.324,0.3119987283995949,0.2894822673380598
8.328,0.22702521129079684,0.20935774726409864
8.332,0.06553202877901543,-0.008210384594853959
8.336,-0.003684409810279801,-0.03706709477642957
8.34,0.1808084034129286,0.1124563179127864
8.344,0.3389600631430125,0.26532859047279755
8.348,0.18107995533931076,0.2538629532127101
8.352,0.008818222049507593,0.031892208568337646
8.356,0.023846519305181585,-0.031526486438945615
8.36,0.14761903684171668,0.19229348095530285
8.364,0.384468773913126,0.3299040243989927
8.368,0.2750914278101121,0.23738933835890888
8.372,0.12908460797230176,0.003931678721717964
8.376,-0.03935823803082975,-0.1088867245691032
8.38,0.022501710171287673,-0.03392497087053259
8.384,0.17699586624731,0.07104161943985518
8.388,-0.06249771747271028,0.05876289496404252
8.392,-0.20213407288883573,-0.26776568640350756
8.396,-0.24479463205012905,-0.224712858397855
8.4,0.015805158267949322,-0.06614009741268337
8.404,0.2664522240222218,0.28367850093154456
8.408,0.3927395469809222,0.21761665349216386
8.412,0.1966867127971431,0.10086987359036725
8.416,0.14579686327974117,0.1600009042636814
8.42,0.43554126775175805,0.3643491881927764
8.424,0.5413527911513019,0.5429239241792576
8.428,0.5447801793691022,0.3436344348594346
8.432,0.11178208559265027,0.0758025723663108
8.436,-0.03987345517931909,0.02599472013946906
8.44,0.015300479599344913,0.06295512428579418
8.444,0.2393517474042875,0.16573676586601743
8.448,-0.041048538799383166,0.03516869085197236
8.452,-0.25541724781796543,-0.1708031320937291
8.456,-0.3049414912486869,-0.27318817111638233
8.46,0.04960012389389758,-0.05030652294585467
8.464,0.22658081700542904,0.20053446850175546
8.468,0.1981076678861496,0.19458057173978702
8.472,-0.054189970658826206,0.0357536636848482
8.476,-0.0778993798110818,-0.09572407456352805
8.48,0.26670448605352476,0.0815268010986633
8.484,0.25185612320059875,0.2856378736612634
8.488,0.22313863922438082,0.23414970424462409
8.492,0.07233124065061554,-0.033856579679072636
8.496,-0.022865397557690507,-0.12683962841519708
8.5,0.10346655515765829,0.14641034032220349
8.504,0.3714124708425121,0.17269599637577898
8.508000000000001,0.2071854823815507,0.16947130844213215
8.512,-0.019518216891500746,0.04224295323015285
8.516,-0.05428096093888203,-0.08467554881924118
8.52,0.1676791674347892,0.18668141801133353
8.524000000000001,0.2604481897902577,0.20368593228481907
8.528,0.2130778280507118,0.14684910340937038
8.532,0.03362454789808708,0.04137744243219917
8.536,-0.018898407733350706,-0.02400641133298316
8.540000000000001,0.15602493832193137,0.11833121987149813
8.544,-0.5660133624540764,-0.39229403414777236
8.548,-1.2372109755604566,-0.908712622703511
8.552,-1.4341369417692575,-1.20607626196017
8.556000000000001,-0.9985399456777277,-0.8619045162576503
8.56,-0.08738202749168882,-0.0783321032619345
8.564,0.9727830031394699,0.8227158368831925
8.568,1.6252264678054344,1.2288730904253056
8.572000000000001,1.475084663646769,1.1936657609618642
8.576,1.0721468980145448,0.7952917899017969
8.58,0.5293363818212564,0.4582038035639196
8.584,-0.17271906778704874,-0.09489786708478287
8.588000000000001,-0.9058351277129214,-0.729217411921845
8.592,-1.5036648214664738,-1.1952483828788052
8.596,-1.3330295520118154,-1.1754976973226299
8.6,-0.5485105396041374,-0.39942239138799485
8.604000000000001,0.2546367007369851,0.2387309946529453
8.608,0.33510201704433734,0.24461581856538128
8.612,0.04681371655592951,-0.00879843803435158
8.616,-0.0842767484091919,-0.05587255307406655
8.620000000000001,0.19114825041298666,0.06065327100460213
8.624,0.3992751912921518,0.2597645771721833
8.628,0.2026415283682279,0.22359249095222342
8.632,-0.06922601736602212,0.08508614828050133
8.636000000000001,-0.05070434386606783,0.025471223083797095
8.64,0.11914168094986882,0.07554449566641819
8.644,0.3523893525104106,0.23804495860463068
8.648,0.10405459640548631,0.23585970514135554
8.652000000000001,-0.04563256125695856,-0.09108486515526854
8.656,0.00018988639473530022,-0.04634432719883846
8.66,0.1345193161762927,0.13790635476157245
8.664,0.2146097049757356,0.2539079217318923
8.668000000000001,0.22711680076963445,0.15931434670274847
8.672,-0.015568752983734446,0.093819777833348
8.676,-0.07596993905102836,-0.06942953816609906
8.68,0.13180448898421482,0.05193642169626917
8.684000000000001,0.27205751977876486,0.19162742945788463
8.688,0.19671841642337048,0.09815639198339836
8.692,-0.2496872767626688,-0.17149182358620774
8.696,-0.3798961475493387,-0.3014813828840064
8.700000000000001,-0.2055401266615615,-0.1040048029858736
8.704,0.02884415144556679,-0.1106469491230779
8.708,-0.17065814707015614,-0.0816345478316458
8.712,-0.41748352268035216,-0.330805681932619
8.716,-0.35051728777504654,-0.4015414480920098
8.72,-0.21792765481377382,-0.09483579556414577
8.724,0.03246716427802586,0.10083178247074776
8.728,0.01930984793549261,0.055948823788154675
8.732,-0.015039076483330985,-0.11262433369761432
8.736,-0.12888099236719086,-0.18638333171349172
8.74,0.02117432234746086,0.017000635173288425
8.744,0.349340183616818,0.3535525823404554
8.748,0.2805451857573411,0.2573902338446768
8.752,0.16364496260031092,0.14015578176108243
8.756,0.18104839218183194,0.14316414355651488
8.76,0.36935032808985346,0.3512278315187849
8.764,0.5901603161861345,0.5236042904806343
8.768,0.5980037950193565,0.47963731052974384
8.772,0.33921298357892493,0.2793933168742641
8.776,0.3035569903284401,0.1618571516665048
8.78,0.4415790778627102,0.3569272908147529
8.784,0.6113457977461546,0.48338375083844687
8.788,0.5003397468692734,0.3875473574569645
8.792,0.1192804912341737,0.16030964169655332
8.796,0.030794840324293252,-0.0015576799834333202
8.8,0.1479568933645737,0.09729156639876047
8.804,0.40362866793299856,0.2306451256715703
8.808,0.15976089164925625,0.13163982921286702
8.812,-0.1440366688973428,-0.1291408800961364
8.816,-0.22011239950793648,-0.2197523695990131
8.82,-0.18385751869880554,-0.15159341342621896
8.824,-0.0008225872427001894,-0.06638335802336874
8.828,-0.12112193324069025,-0.05101480865830659
8.832,-0.3369943057013545,-0.35051682583731614
8.836,-0.4800689484612038,-0.34506515084340217
8.84,-0.2520308346456954,-0.20922892978411115
8.844,-0.04321878365262792,-0.007276782191705722
8.848,-0.014115594617616245,-0.04089035804843913
8.852,-0.29456697865734044,-0.12588954961715687
8.856,-0.20648351644777768,-0.20862963939115844
8.86,-0.05498182623381803,0.004917243218992344
8.864,0.264431151817704,0.21226417792814628
8.868,0.1775105591948579,0.21633751498191786
8.872,0.0008401269531703379,-0.017324688885633883
8.876,-0.046023264606196365,-0.034462344294651524
8.88,0.12706712113975815,0.07901524292276876
8.884,0.2979577575410351,0.2659438122063814
8.888,0.26337239449652305,0.13314161218395992
8.892,-0.00976310043563956,-0.05303239387799233
8.896,-0.11008923884593763,-0.09251466600009502
8.9,0.17132005478290105,0.06557239934634398
8.904,0.21300683776002438,0.29054980992131674
8.908,0.2540053933381262,0.256274067920424
8.912,-0.09971215219627445,-0.012332807661647707
8.916,-0.06459823857625893,-0.1173046534274018
8.92,0.14749663758507892,0.07104144778469568
8.924,0.25124151222244484,0.2528028265800327
8.928,0.21206024575217142,0.1872244287005351
8.932,-0.04401017378371491,-0.026476326857123623
8.936,2.330826509587547e-05,-0.03595928636418083
8.94,0.13034538597412465,0.0249464474096033
8.944,0.3398558193597947,0.25755568870247275
8.948,0.19705922878525367,0.23804473155582484
8.952,0.050046080434801285,0.051758912485197484
8.956,-0.14302545858324628,-0.13750093492099744
8.96,0.1320676967468268,0.0850119173085057
8.964,0.32088116341135975,0.2595456534287636
8.968,0.2242034571823266,0.2146880291043058
8.972,-0.024938436537770975,-0.072543112129892
8.976,-0.0528497491707575,-0.06614601165834849
8.98,0.04231524855354794,0.08147461869485255
8.984,0.2279153878237275,0.26457200288483157
8.988,0.21347246886455193,0.12937834197221368
8.992,-0.03580188038541772,-0.058674084053693495
8.996,-0.09767017114909135,-0.12889525764530663
9.0,0.1380656194489758,0.08118666360416563
9.004,0.25901778401524317,0.20820303649437044
9.008000000000001,0.25472145924224204,0.15508328159753307
9.012,0.07156884719593713,-0.05165149059908965
9.016,-0.12387029644472002,-0.16435847156845673
9.02,0.02099967677923535,0.1118895228306164
9.024000000000001,0.28604311422180917,0.2213272417513555
9.028,0.21307771632447656,0.18852550201057938
9.032,-0.05205628540684424,-0.022709968595428294
9.036,-0.0010284664293374324,-0.07668259261098184
9.040000000000001,0.04295681491703912,0.04426340874864722
9.044,0.2889549218182225,0.2927801936841699
9.048,0.257770816059048,0.1856781577612139
9.052,-0.04901233238934162,-0.06275609038054492
9.056000000000001,-0.09894877572577027,-0.009000483145232802
9.06,0.13673017315587557,0.15863454375327468
9.064,0.32167661130930836,0.2429802312669973
9.068,0.21442633286705362,0.1128443968008043
9.072000000000001,-0.026131588849934988,-0.06648422880440259
9.076,-0.08407950777620538,-0.09263228068506857
9.08,0.1408442391295175,0.11095953058237887
9.084,0.26390630526692493,0.20559287545682808
9.088000000000001,0.24684146750020475,0.16440921250058757
9.092,-0.0578987748004359,0.013045077086635423
9.096,-0.05113564328663351,-0.11841444795661105
9.1,0.053724268130004554,0.11759309289021769
9.104000000000001,0.17926205350330948,0.23691656549058163
9.108,0.11984070119320049,0.21577006679431432
9.112,-0.07016008494074046,-0.06398285640648264
9.116,-0.1165644238755651,-0.0530225787731502
9.120000000000001,0.13392073239339608,0.06951443193638404
9.124,0.23620938401784422,0.2663922309593506
9.128,0.21812679519382844,0.1768339280965209
9.132,-0.03604324048918754,-0.04111373807044996
9.136000000000001,-0.1458403744662618,-0.11916195926732706
9.14,0.09773985272988525,0.038099672903499006
9.144,0.2548053599605623,0.2343556109337463
9.148,0.1822790611438062,0.13925492392878344
9.152000000000001,-0.07821596212939527,-0.06860641934067496
9.156,-0.07133447955568809,-0.0640406605272563
9.16,0.027745881163715888,0.009404831609040203
9.164,0.2672744959374095,0.195583697744308
9.168000000000001,0.23133422463703798,0.1972229995977396
9.172,-0.014240520936649195,-0.029046184882221125
9.176,-0.06079903590063346,-0.1472856520611
9.18,0.035025871799389666,0.06649866326823536
9.184000000000001,0.24833603283754005,0.3263198001154429
9.188,0.14337356901215964,0.13984343364112173
9.192,-0.1332889742790076,-0.08784739555881615
9.196,-0.13449190781180204,-0.10226350501689875
9.200000000000001,-0.04943634320850206,0.06472126569403262
9.204,0.338868515129199,0.16820844393748607
9.208,0.3006773016793812,0.1448883818922165
9.212,-0.0557909237772702,-0.03178315960914252
9.216000000000001,-0.16640179078929337,-0.11070727665841082
9.22,0.04401175153095828,0.03275531169354322
9.224,0.3130452164526563,0.28246857378498746
9.228,0.19205729711623717,0.10765072880165598
9.232,-0.19058953758582042,0.02433504642525062
9.236,-0.19611345963428542,-0.21769151797917446
9.24,-0.17671768660369308,-0.054503454240924176
9.244,-0.023670497567190224,0.12580192818563227
9.248,-0.08304106323419823,0.059225636016046745
9.252,-0.19189029561980248,-0.2596455595700484
9.256,-0.29631819900023065,-0.24865045909883443
9.26,-0.04363457970380837,0.0034399544520328246
9.264,0.27195718115121614,0.23996207745856427
9.268,0.24582500063062335,0.3347586587863682
9.272,0.05197044334675226,0.14709414997774561
9.276,0.039392165780084434,0.04102185359952974
9.28,0.3098625127605475,0.2079011436653291
9.284,0.5345943750361322,0.39224023347106013
9.288,0.29005029678730354,0.28602057065460407
9.292,0.03238986927527318,-0.044943258819994794
9.296,-0.2098196746474263,-0.20500257580813094
9.3,0.033416650870025655,-0.0827392540841714
9.304,0.11874963706732149,0.0684094508614089
9.308,-0.0949861423313923,-0.07248223088128662
9.312,-0.3382074144501132,-0.23360137710986045
9.316,-0.21345743367258985,-0.31455510270586456
9.32,-0.1282341375146264,-0.10059682369940096
9.324,0.2517411595334832,0.10472305404187904
9.328,0.28634303403317796,0.18946060051521355
9.332,-0.008789857141652313,0.005039254401487218
9.336,-0.2025700860345911,-0.09136495191671704
9.34,0.005924387747918314,0.045489882705551814
9.344,0.24112998846786357,0.23594105373288068
9.348,0.2185441341854948,0.15928993131444263
9.352,-0.0245125509807836,-0.026721299109321667
9.356,-0.061339537084152046,-0.19828681387989072
9.36,0.05330498507094053,0.13220747559971893
9.364,0.30605043556931977,0.2221669822735583
9.368,0.19287041926381282,0.07934220266250476
9.372,-0.029196733494264222,-0.06394595255575455
9.376,-0.09203078283178184,-0.1898014311632667
9.38,0.026018654758056037,0.10052547408896453
9.384,0.20056735537425144,0.27176523496627153
9.388,0.08003824163101482,0.1803681580044163
9.392,0.00025145115895497394,-0.11743157961727188
9.396,-0.21664100663428665,-0.16556625379783127
9.4,-0.5671825632378319,-0.42954784109517097
9.404,-1.131043987003063,-0.9097170730005711
9.408,-1.3457279285712938,-1.0137816948458098
9.412,-1.215871565176703,-0.9666232924868361
9.416,-0.6792113366981991,-0.5225445798488073
9.42,0.46237052326274647,0.36792306562551663
9.424,1.4418570109682731,1.1328478353076288
9.428,1.604418063803315,1.3820925579885985
9.432,1.2285398523118136,0.966535502991883
9.436,0.5350482786518952,0.38703332761836634
9.44,-0.19219146961972347,-0.0859590668815085
9.444,-0.707597818478108,-0.6475619514392501
9.448,-1.3085198985032382,-1.0456084690879863
9.452,-1.4384025351301675,-1.1837830601883548
9.456,-0.9869707804094217,-0.845283262078322
9.46,0.10072867240718619,0.03259044952769824
9.464,0.24813460905638576,0.22371401657262605
9.468,0.1936103646598058,0.13453650874791365
9.472,-0.0828237683837444,-0.10866549890982136
9.476,-0.07176482111889747,-0.09487018005649822
9.48,0.03647971301340692,-0.0744392230503149
9.484,0.36290679657178093,0.1589281390237756
9.488,0.19054137044374003,0.1116194749788133
9.492,-0.07534992654262118,-0.045135819826479066
9.496,-0.19071718114844677,-0.12356234291286444
9.5,0.013021789898786246,-0.02975085266436317
9.504,0.24115808212357615,0.23096918909555225
9.508000000000001,0.2078604224672949,0.1426342287079659
9.512,-0.06712761538604631,-0.03453720375561195
9.516,-0.1301031258393008,-0.1298389243641732
9.52,0.09964301587041449,0.0655056069602595
9.524000000000001,0.23245228321578593,0.20529449284144807
9.528,0.10898428131498461,0.16974841154522188
9.532,-0.029594181347782696,-0.024660342492836003
9.536,-0.14513771414143944,-0.20962825096114984
9.540000000000001,-0.047270454992850805,-0.09423428928507113
9.544,0.008319640892554332,0.09296531956321011
9.548,-0.02631257766495798,-0.07824855051681401
9.552,-0.3636396805186433,-0.3587060778143598
9.556000000000001,-0.47382107977519483,-0.4163753675685137
9.56,-0.2997733548430048,-0.2711439540221292
9.564,-0.1844406985285023,-0.07951019653777536
9.568,-0.12933289072664395,-0.14761390414424513
9.572000000000001,-0.5007001769417798,-0.37647232576664524
9.576,-0.4665994287600534,-0.3999311478322468
9.58,-0.29026671881342847,-0.13123271081119664
9.584,0.0817230262763391,-0.018746760299514276
9.588000000000001,0.025278476902744956,-0.024761388430625617
9.592,-0.1405419163900498,-0.19114015763555428
9.596,-0.19764360087037885,-0.17989993694998774
9.6,0.0013399887898838392,-0.029065771519158082
9.604000000000001,0.24426234062205654,0.2534825158875916
9.608,0.28758725736080654,0.26841174906829557
9.612,0.21567173749441293,0.13250723508499127
9.616,0.10858152603637967,0.03735685480020047
9.620000000000001,0.3662508403902581,0.3124716221034314
9.624,0.5556168452917764,0.4567610154302172
9.628,0.4860631414036118,0.4184773020907142
9.632,0.31941757042910657,0.11349622412852567
9.636000000000001,0.12074067534217964,0.1577537714081672
9.64,0.3207204063500489,0.26971829134670655
9.644,0.5978355504761518,0.42439155988605576
9.648,0.3799839749848037,0.26016586305067896
9.652000000000001,0.024048129460057896,-0.006414332362055068
9.656,-0.024153388393946193,-0.08032436672098107
9.66,0.03443134922417282,-0.03174005415168792
9.664,0.20846900967436505,0.1378444180806272
9.668000000000001,-0.005183823842866166,0.016378901547426335
9.672,-0.1895228508065479,-0.33150870921930536
9.676,-0.380902334509026,-0.3262214312406019
9.68,-0.21700116161887634,-0.29801857142440036
9.684000000000001,-0.18022921107911988,-0.10262959706774749
9.688,-0.17606576956761794,-0.15584938889205913
9.692,-0.3931760479687882,-0.3634170959310228
9.696,-0.45556068720315923,-0.4542127474097081
9.700000000000001,-0.2715925831739845,-0.3663238984927807
9.704,0.02009359161449112,-0.020895723265508516
9.708,-0.15204005079117713,-0.16004554087009631
9.712,-0.3719010822025731,-0.23255353369523998
9.716000000000001,-0.32945901906874714,-0.20451849252904986
9.72,0.048160454690571175,-0.06594533540577636
9.724,0.3288058147620526,0.20024026787270338
9.728,0.19415843606298983,0.2432538632280157
9.732,-0.034710045636142564,-0.06773393728931235
9.736,-0.16789520472822186,-0.17257401331462346
9.74,0.011280989991274802,0.07496062126720576
9.744,0.22974403024608872,0.10082488483069033
9.748,0.23251684291424965,0.1191587053808353
9.752,-0.02579199485502366,-0.06451034873720735
9.756,-0.13811752120901882,-0.2013454294106386
9.76,0.029135684084512226,-0.0011708845060688575
9.764,0.2061203014482728,0.1932022729329252
9.768,0.19699218841606814,0.11556950177123763
9.772,-0.12993704829464486,-0.05114324377577385
9.776,-0.1729476562167673,-0.19419573128548592
9.78,0.01444438868841079,-0.02969936109375961
9.784,0.16124842883122625,0.19943903094814866
9.788,0.22628703833430347,0.12996924440208324
9.792,-0.056319589403817975,-0.04047500599414156
9.796,-0.17622873120759694,-0.10980543258828963
9.8,-0.027055608483040495,0.08290416133377237
9.804,0.14323353526003854,0.1792639414894046
9.808,0.1209455111305565,0.06387091715665086
9.812,-0.1554935318290523,-0.01149976866398858
9.816,-0.1449419179926669,-0.17491628958880115
9.82,0.04523791178211388,0.009234679802924375
9.824,0.2845911230829832,0.1724345456035244
9.828,0.10611414156675034,0.1459531347431509
9.832,-0.10505661988577573,-0.08962885901191761
9.836,-0.17336979004071287,-0.1747193404350004
9.84,-0.013546727724033897,0.0062990741896629225
9.844,0.1279594977882404,0.21520970107824616
9.848,0.1660251437308449,0.057205618602410135
9.852,-0.05860129492926727,-0.09385938817269146
9.856,-0.23809479474792142,-0.21616336641026926
9.86,0.07527841962902125,-0.005571437346984655
9.864,0.17589462910939824,0.1684317312827229
9.868,0.12900399835969845,0.16841349354270807
9.872,-0.12039337264093834,-0.14176453710289225
9.876,-0.23323888664118228,-0.07700935552441854
9.88,0.014560344880331269,-0.02953126309256059
9.884,0.07730253721008323,0.18358735158439918
9.888,0.04867260433303912,0.12576898236686626
9.892,-0.15060358566441467,-0.03344562107628754
9.896,-0.20314546718363372,-0.21872120821891136
9.9,0.03491435795778628,-0.03531335393960096
9.904,0.10570840062565655,0.2107051920251563
9.908,0.11372001151477452,0.040533605515896895
9.912,-0.04541666673275341,-0.13517307884209245
9.916,-0.21590561589497587,-0.1306415503817249
9.92,0.0486206510126403,0.03979894167908327
9.924,0.30275962541524853,0.14269596463914477
9.928,0.07751335626197678,0.0633160346219338
9.932,-0.11915238545159623,-0.11909333317423788
9.936,-0.14704849873992915,-0.17140944758535437
9.94,0.022327572088108226,-0.015923242659419766
9.944,0.15204711050266365,0.17107722017215116
9.948,0.10417853570937013,0.1280985150257061
9.952,-0.14890406115584484,-0.07378268596810704
9.956,-0.13445833431544804,-0.17211014016890572
9.96,-0.05669433114876623,-0.013199578446083576
9.964,0.22224866574458485,0.2610260581805291
9.968,0.10805948274829273,0.04281265769566647
9.972,-0.17865792207368758,-0.07831114759325991
9.976,-0.2468989108342523,-0.1421106155074885
9.98,-0.022943196004693144,-0.011771797917573795
9.984,0.21125803703570634,0.18573975692369016
9.988,0.04521244045723692,0.10419336103171202
9.992,-0.13460500493462738,-0.06795563380429993
9.996,-0.23985580640131204,-0.1509416050303799
