Time,Channel_1,Channel_2
0.0,0.18499227507037674,0.18407922504809227
0.004,-0.11772921097029154,-0.1222624478359483
0.008,-0.43134942504096074,-0.4376274577650101
0.012,-0.7266310132866833,-0.7324891099421098
0.016,-0.9371247781924048,-0.9408955328609783
0.02,-1.0,-1.0
0.024,-0.8977210438124945,-0.8926411234197823
0.028,-0.6715265282513851,-0.6616869415779352
0.032,-0.4005289423923081,-0.3870856839900567
0.036000000000000004,-0.1609492960817317,-0.14362234736470025
0.04,0.006740718351774699,0.029246265589434328
0.044,0.10246270772790478,0.12980747735972376
0.048,0.14959683259536116,0.17913279303050844
0.052000000000000005,0.17610651704100144,0.20419156949635608
0.056,0.20193555052249068,0.22556322384930638
0.06,0.2330206407454336,0.25127106835680935
0.064,0.26454751780252717,0.2777805732824814
0.068,0.2903687347350721,0.2982152952788306
0.07200000000000001,0.30891268744098777,0.31104742926727824
0.076,0.32257406745753014,0.3203260516337678
0.08,0.3342449472423956,0.3292627455161219
0.084,0.34450354912447256,0.336818940027358
0.088,0.3520637122528578,0.3411689083242653
0.092,0.35642050073756426,0.34384970392179026
0.096,0.357965217195068,0.34759139696102404
0.1,0.35480574824963385,0.3504130065452893
0.10400000000000001,0.34263537985882064,0.3444291238794228
0.108,0.3198515753804203,0.3220026509236473
0.112,0.2897414606907909,0.28280349808914806
0.116,0.2555514188281287,0.23387512476189776
0.12,0.21644842106471507,0.18324824045734478
0.124,0.17095164950919006,0.13544335780924932
0.128,0.12266650996042738,0.09331640216827464
0.132,0.08037999761883352,0.06100849041490508
0.136,0.05230058502621904,0.04208445426405505
0.14,0.040857996161955734,0.03594622218210719
0.14400000000000002,0.04343186214741923,0.038739425309646025
0.148,0.05656981994822563,0.04805031387828951
0.152,0.07762675214684411,0.06514035409682095
0.156,0.10345114751271245,0.09158875665400967
0.16,0.13007722172496927,0.12543119970764582
0.164,0.15411524927809483,0.16218949028049323
0.168,0.1745064036649755,0.19861070754725363
0.17200000000000001,0.19406900452580222,0.23433089651197747
0.176,0.21789598371810914,0.2697678763318898
0.18,0.24828001903603525,0.3031626769425657
0.184,0.28210496504132343,0.3307322708064049
0.188,0.313646132447037,0.34954751896878067
0.192,0.33888428370717527,0.36021419979715263
0.196,0.35688108145955844,0.366413887661603
0.2,0.36745851388674544,0.3707664533893962
0.20400000000000001,0.3685892249584437,0.3714554909476393
0.20800000000000002,0.35772004537711344,0.36316870438981974
0.212,0.33529896625283384,0.34141856328317344
0.216,0.3054309504387229,0.30699460227756825
0.22,0.272934270019799,0.26539483218635795
0.224,0.24000472583614907,0.22192328570836284
0.228,0.20642911646782247,0.18002497056445077
0.232,0.17259169476815273,0.14272318756344293
0.23600000000000002,0.14023508638033566,0.11191712890556893
0.24,0.11045995644448814,0.08728556424089495
0.244,0.08300180143347835,0.06752594582100713
0.248,0.05841193898278241,0.051957368007550686
0.252,0.03958194255471281,0.040604974795938054
0.256,0.029461760167361906,0.03337202329138722
0.26,0.027888351637184616,0.029244111216519597
0.264,0.03167910126403051,0.026765434914389985
0.268,0.03797770227664388,0.02662578238721114
0.272,0.04734665184660147,0.03299146863909508
0.276,0.06315667294318916,0.05086686831601406
0.28,0.08822419030471207,0.08279596413962143
0.28400000000000003,0.12236772225259274,0.1272786706450424
0.28800000000000003,0.16205834333861668,0.17780550948956897
0.292,0.20111533366913603,0.22357430256827526
0.296,0.23264194445206954,0.2536688628607544
0.3,0.25224315733626423,0.26271254473642025
0.304,0.2592981868743771,0.2537144574426011
0.308,0.2555468326603709,0.23564505571643823
0.312,0.24467533251927787,0.21804810097038607
0.316,0.23190906605349304,0.20694455637368492
0.32,0.221038177869753,0.2033727847290996
0.324,0.2127103690260752,0.20487096459298315
0.328,0.2061295024259142,0.2089592559418072
0.332,0.2009095366013729,0.21462240755961037
0.336,0.19753638957085906,0.22100976342032053
0.34,0.1964325094616548,0.2265464870750984
0.34400000000000003,0.1966799426375041,0.2294387495978547
0.34800000000000003,0.19664996269909385,0.22870727260253987
0.352,0.19508108142393987,0.22466009253117836
0.356,0.19124215891735474,0.21805235094395137
0.36,0.18623232560530778,0.20936781735661514
0.364,0.18320301912878678,0.1991940365769449
0.368,0.1839830531795965,0.18829552894588475
0.372,0.18711512303210576,0.1776922950922406
0.376,0.18986029196569754,0.16948548891639326
0.38,0.19004018100070397,0.16618186464900764
0.384,0.18668505235900934,0.168465896198001
0.388,0.1808415390106024,0.17419099256394732
0.392,0.1750986619044057,0.17918661880721043
0.396,0.17176141000694156,0.18012910944893923
0.4,0.17193763893962344,0.17778900315624502
0.404,0.17565112821680273,0.17610902651547944
0.40800000000000003,0.18168229041822803,0.1782353077178993
0.41200000000000003,0.187778253367747,0.1840432957157847
0.41600000000000004,0.19212089285569012,0.19009863436330976
0.42,0.1941910681277923,0.1918206564324234
0.424,0.19389461000143005,0.18673288350153627
0.428,0.19108662749731353,0.17663846798159333
0.432,0.1860935228480627,0.16673037287591197
0.436,0.1799830217702525,0.16137740278494506
0.44,0.1745816412319623,0.16077703475423855
0.444,0.17152230213259756,0.1625642569859187
0.448,0.1706742908762,0.16592857402010264
0.452,0.1703931839752617,0.1723879564166495
0.456,0.16937282748337323,0.18229978635257216
0.46,0.1680487787968159,0.1923076667291539
0.464,0.16823105824313322,0.1972637109434925
0.468,0.17101060592873885,0.1943977906652692
0.47200000000000003,0.17524986066951365,0.1856686745446139
0.47600000000000003,0.1791315224850838,0.17630520829385188
0.48,0.18297622187324758,0.17099281601942007
0.484,0.18840839381061247,0.17104961068350177
0.488,0.19481684608698036,0.17449097666988633
0.492,0.19895180170242388,0.17883773885603937
0.496,0.19837457998221564,0.18362858054387488
0.5,0.19377960144589101,0.18928612324366312
0.504,0.18726405146172542,0.1947899684431047
0.508,0.18058073498432203,0.197884546134921
0.512,0.17588637358873815,0.19687495294550605
0.516,0.17495297920087838,0.19185874984236517
0.52,0.17706886294557944,0.18452850049044045
0.524,0.17987579939211917,0.1773449539610088
0.528,0.1819540179865229,0.17306174762725912
0.532,0.18377225079081483,0.17357785944029036
0.536,0.18616272351503182,0.17865668686688085
0.54,0.18827223180225494,0.18638374616886022
0.544,0.18795391873914125,0.19399417953709297
0.548,0.18383152961972926,0.19842255262044906
0.552,0.17684677299706308,0.19780108901231808
0.556,0.16996458010775517,0.1923081734093155
0.56,0.16572284513073643,0.18343864372983898
0.5640000000000001,0.1649311129298099,0.1738313583045894
0.5680000000000001,0.16733023841141748,0.1674393251288595
0.5720000000000001,0.17178736868538236,0.16746619247187366
0.5760000000000001,0.17664214843159942,0.17325263080979347
0.58,0.18091345879096998,0.18054992427908956
0.584,0.1851308968353802,0.18538640769220538
0.588,0.19044514970921766,0.18676577828608143
0.592,0.1969001387293121,0.18616513191902184
0.596,0.20302432996811226,0.1855848501859234
0.6,0.2063582415857963,0.18552429412761784
0.604,0.20446338829222066,0.18446612012982344
0.608,0.19674864402100112,0.18111582274228688
0.612,0.18571903667489997,0.1771319659786572
0.616,0.17594295076419542,0.17691004567376467
0.62,0.170938655658043,0.18439121099629707
0.624,0.17115105478208892,0.19945367009959147
0.628,0.17521660862714694,0.2169830647830191
0.632,0.1819397662230109,0.2299826289174054
0.636,0.19084663000804603,0.23414745731347297
0.64,0.20163580306165385,0.23015761532284684
0.644,0.21259180724191284,0.2220137411207106
0.648,0.2197554164762907,0.2129232475101699
0.652,0.21832110742693178,0.20256658360330526
0.656,0.2046660327216716,0.18746011215425673
0.66,0.17822248049648048,0.16372572085983395
0.664,0.14299046099247303,0.13108612918636298
0.668,0.10709881729189763,0.09474591045852931
0.672,0.08004607198704727,0.06322891436679234
0.676,0.06955957211283414,0.04489329643850959
0.68,0.07988930156692464,0.046005258363553514
0.684,0.11102272803125302,0.06985911532041089
0.6880000000000001,0.15790663032194763,0.11520440967019185
0.6920000000000001,0.21126993906519265,0.17522363828452492
0.6960000000000001,0.26101054517712585,0.23916984078663783
0.7000000000000001,0.299282936093324,0.29540774346689647
0.704,0.32131825682042536,0.3336007241808858
0.708,0.32474181249392853,0.3463432819885386
0.712,0.30799157152572354,0.3315237322031723
0.716,0.27055107657029764,0.2938166713049766
0.72,0.21641447517252965,0.2424238186317138
0.724,0.15571236520891407,0.18651233916776144
0.728,0.10148976175748392,0.13318228288734613
0.732,0.06477916675428563,0.08901235524554685
0.736,0.05099561930026564,0.06143385909061849
0.74,0.05965631698701768,0.05735095934789891
0.744,0.08665353098425777,0.0793612251975715
0.748,0.12506856402083466,0.12206938535972434
0.752,0.16532003435370424,0.17217637743368797
0.756,0.198236632708211,0.21341733426216858
0.76,0.2193628817926192,0.23468451027848536
0.764,0.23040327863812093,0.23618586824352628
0.768,0.23617191958835493,0.22712480110928235
0.772,0.23974671894197241,0.2176716793369906
0.776,0.24045817574594808,0.21335331776969002
0.78,0.23616225831456306,0.21438066033412784
0.784,0.22742116937510248,0.21895340732655155
0.788,0.21933721009274043,0.2263963895345411
0.792,0.21883963308943688,0.23680238790234132
0.796,0.2303033427714003,0.25104942081809734
0.8,0.2534531654993928,0.27114372927513775
0.804,0.2834574371867673,0.29657409464927076
0.808,0.3104649713794423,0.3199812893175358
0.812,0.3173897255504945,0.32519257080346753
0.8160000000000001,0.2795554841500245,0.2880550378924782
0.8200000000000001,0.17332178849804492,0.18499297827387728
0.8240000000000001,-0.00469947061079401,0.01095779151051679
0.8280000000000001,-0.21748038866867758,-0.20079889243052607
0.8320000000000001,-0.38559263640449326,-0.374234969167649
0.836,-0.4179776881927272,-0.41800089315187317
0.84,-0.26157430159101125,-0.274807555284592
0.844,0.06417514206966324,0.04087039255665226
0.848,0.4677063129804435,0.43965757518060133
0.852,0.8180212239236837,0.789233717595172
0.856,0.9944261923766962,0.9664592125451863
0.86,0.9331848954615711,0.9070974395715077
0.864,0.6538685254367214,0.6328037534138453
0.868,0.25392927869896864,0.24319290626453327
0.872,-0.1292341442183791,-0.12553854702118994
0.876,-0.37334599459939843,-0.3564233251463026
0.88,-0.4190103131936661,-0.3959753895937643
0.884,-0.2893018247421285,-0.2701405698174295
0.888,-0.07072106688800839,-0.06402589054725749
0.892,0.13772979951735542,0.1292450435996393
0.896,0.2744928562344522,0.2558837314527622
0.9,0.32949008721482365,0.3108872770653863
0.904,0.32523053219879006,0.31750550234848296
0.908,0.29257000465665195,0.3035658332662172
0.912,0.25681002560869404,0.2873655930658625
0.916,0.23347230994300672,0.2752155144244077
0.92,0.2278205168097871,0.2668857303927703
0.924,0.23608231520416245,0.2609761074398249
0.928,0.24955164072639135,0.25632434058918174
0.932,0.25994118115764486,0.25172724300203986
0.936,0.2632548517387565,0.24701338788768634
0.9400000000000001,0.2607013048574449,0.24434644063593192
0.9440000000000001,0.25659775881392277,0.24661492558328746
0.9480000000000001,0.2549437652905904,0.2543804823135418
0.9520000000000001,0.2562077983123996,0.2642422417505885
0.9560000000000001,0.25600294301112814,0.2685267816429975
0.96,0.24724945450271507,0.2581135674522195
0.964,0.22493537223016835,0.22920939933286388
0.968,0.19001516256279705,0.18715620704408775
0.972,0.1484015946123427,0.14167815032068143
0.976,0.10644700301423682,0.0995956445450108
0.98,0.06886118715937473,0.06365902649705601
0.984,0.03916758588775804,0.03570091203690118
0.988,0.019362640046464152,0.01720021192898824
0.992,0.009481567492438447,0.0076904096664329735
0.996,0.008339875778196948,0.005278661260651241
1.0,0.014888865493952963,0.008591083875620908
1.004,0.02868840417464469,0.01774875789442154
1.008,0.04882640631009627,0.034135500493061466
1.012,0.07362955116206371,0.058995618963622265
1.016,0.10196095767200353,0.09159901248052704
1.02,0.13372846596037768,0.12877739818349232
1.024,0.1692796569032884,0.16651525851261795
1.028,0.2084241412377419,0.2025266187192163
1.032,0.24914875248014523,0.23754065344085795
1.036,0.2872689529695025,0.2734993377979247
1.04,0.31827014245351837,0.3103961209544166
1.044,0.34008312433370347,0.34521990068397357
1.048,0.35385589562570696,0.37355215299256495
1.052,0.36201173122009833,0.39211165751861543
1.056,0.36553878047600996,0.40011028560724227
1.06,0.3634382293164655,0.39839272939684167
1.064,0.3550029978278284,0.3879768130667671
1.068,0.3408840964047939,0.36930052091430743
1.072,0.32129791031226573,0.3419628280509879
1.076,0.29527230469543,0.305567028887171
1.08,0.2625342030594542,0.26187651078341934
1.084,0.22495586361836906,0.2156588429286821
1.088,0.18593999822735618,0.17207992355970747
1.092,0.14891558566989538,0.13358984364181414
1.096,0.11545031987179821,0.10012199725415072
1.1,0.0849322449677068,0.07125326792709719
1.104,0.05761224209196869,0.04763384152624539
1.108,0.03654161121180266,0.031050061760312442
1.112,0.024214967181455105,0.02246289821600378
1.116,0.01935891568895065,0.020217137654882533
1.12,0.019690208070844317,0.021926693070888126
1.124,0.025712833889640185,0.027237247342345228
1.1280000000000001,0.039683875163559756,0.03757748610230127
1.1320000000000001,0.06237754226948833,0.05493232143324822
1.1360000000000001,0.09238794125143945,0.08090223660768414
1.1400000000000001,0.12793163338879388,0.11528918438217395
1.1440000000000001,0.1673022637602748,0.15599790320716345
1.1480000000000001,0.20664457245104217,0.1991977541753629
1.1520000000000001,0.2390523902635262,0.23744819937940553
1.156,0.257823931238504,0.2608133436483637
1.16,0.2609023934748995,0.264353782428596
1.164,0.25213846135861795,0.2528805825645051
1.168,0.23803915212756266,0.2360310101791525
1.172,0.2235520179986481,0.22167035483477604
1.176,0.21133323181880703,0.21397318446667857
1.18,0.20297992381953955,0.21320616635761636
1.184,0.19924256722757527,0.21622923965178953
1.188,0.199914691480239,0.2185045534604988
1.192,0.20359463074421313,0.21703625042865404
1.196,0.20720324286078462,0.2123242555496474
1.2,0.20712680486796553,0.20698749642041636
1.204,0.20198052396855903,0.20292785874747432
1.208,0.19420647090780285,0.20048775763063942
1.212,0.1884824068362818,0.1994176929068867
1.216,0.18833892748456105,0.19969278338402185
1.22,0.1941047700999763,0.20125308923672747
1.224,0.2029639627408344,0.20322347726708379
1.228,0.21056527870363606,0.20377112924550533
1.232,0.21315936831290205,0.2010990691457475
1.236,0.20908402258911396,0.19478616254883008
1.24,0.19943577237434873,0.18625854714684187
1.244,0.18742401365838912,0.1779671896464834
1.248,0.17664064146301972,0.1715980486768116
1.252,0.16932264882552062,0.16712480675901809
1.256,0.16504800370988515,0.16397156904728938
1.26,0.16128150742099834,0.16240227239498384
1.264,0.15628145667928828,0.16356282414905143
1.268,0.15087162238633023,0.16805823887995075
1.272,0.14726561561553608,0.17408132822916023
1.276,0.1478325504881397,0.17812540663727217
1.28,0.154374239040189,0.1782301788421603
1.284,0.16655379071334786,0.17564159940515567
1.288,0.1812461768374245,0.17334469294874877
1.292,0.1938728489061956,0.17328158224855317
1.296,0.19985019182053065,0.1745569025162419
1.3,0.1962342217802091,0.17448927845992057
1.304,0.18466016115657258,0.17175274094509363
1.308,0.17200723445427069,0.16819342271820692
1.312,0.16592013267393368,0.16726517424071496
1.316,0.16956023495349815,0.17067148567851564
1.32,0.18004908314977497,0.17665412593240393
1.324,0.1905764232015914,0.18215671867236694
1.328,0.19500707145453133,0.18636247560662245
1.332,0.1921025555162974,0.1905463285578477
1.336,0.1857112749330072,0.19509199291048462
1.34,0.1814905238382427,0.1983427281518979
1.344,0.18347398337775722,0.19796415804423528
1.348,0.19161938665645994,0.19338138452566622
1.352,0.20124754050488147,0.18752929921896322
1.356,0.20653474335558242,0.18515575662425587
1.36,0.20515210416520535,0.18834835899769353
1.364,0.19813994225410858,0.19455684350021407
1.368,0.18716086215164784,0.19932822225105618
1.372,0.17472548417771594,0.20010274160045216
1.3760000000000001,0.16516532249311267,0.19758268895942988
1.3800000000000001,0.1624093149957304,0.19401645783204224
1.3840000000000001,0.16642706973746346,0.19067258437660595
1.3880000000000001,0.17244230870180433,0.18732914973326698
1.3920000000000001,0.1752807767302289,0.1831027952863773
1.3960000000000001,0.17498796621189716,0.177308161783172
1.4000000000000001,0.17625139815410873,0.17055788907996816
1.4040000000000001,0.1823725198706434,0.16520969118701978
1.408,0.1916963601724453,0.1637492477532263
1.412,0.19950181984865045,0.16673012163264134
1.416,0.20186887557814504,0.17297578076221098
1.42,0.19808219839297725,0.18098471618521428
1.424,0.1905564371806885,0.18921824992093805
1.428,0.18267998852541734,0.19564788135902034
1.432,0.17602035329846655,0.19815445975041834
1.436,0.16971520237687376,0.19584727521325207
1.44,0.16330480795137925,0.18980224738806095
1.444,0.1589758614767005,0.18210241989122444
1.448,0.15952049530566703,0.174299233150639
1.452,0.16513115682081603,0.16747295109142146
1.456,0.17339652288186813,0.1633000474817048
1.46,0.18188309831000837,0.16366416440163367
1.464,0.1896459361414411,0.16889767150120072
1.468,0.19618961754902142,0.17711579923899512
1.472,0.20072204991286835,0.18590218552719406
1.476,0.20317289023076834,0.19421077499378314
1.48,0.20427050661225166,0.20211908804896073
1.484,0.20415800889237357,0.2096032839996267
1.488,0.20237613360410056,0.21585102148774338
1.492,0.19933291966229416,0.21947089863827518
1.496,0.196775271043383,0.21950576653944331
1.5,0.1968197854234801,0.21613143069804486
1.504,0.20031948828575574,0.21066373414191952
1.508,0.204641581000772,0.20388390804061562
1.512,0.20300124240232664,0.1929622874871446
1.516,0.18818208835198713,0.17244720676185432
1.52,0.1580699234298888,0.1408668514920175
1.524,0.11817577550443303,0.10446463984905585
1.528,0.08037346086326846,0.07307963500273607
1.532,0.05842916452177671,0.05512967281972592
1.536,0.06131308572633509,0.05672862097546383
1.54,0.08902602099606649,0.08091725021506213
1.544,0.13465692667832663,0.12522173627383526
1.548,0.1892580512115407,0.18125244725320466
1.552,0.2446858249228545,0.23798027813011569
1.556,0.29406193911601863,0.2858576737563212
1.56,0.3306071504605639,0.3186459413572138
1.564,0.3464329016782215,0.3326286288333955
1.568,0.3349206711272277,0.3253517239518373
1.572,0.2957542555577437,0.29650062143969924
1.576,0.236940944435988,0.2503975891379462
1.58,0.1719005852872384,0.1965217733148048
1.584,0.11393089288343394,0.14664513535844215
1.588,0.07190613968328896,0.11054238526305649
1.592,0.05019841182063112,0.09272958497828498
1.596,0.05025645546887847,0.09242896243072085
1.6,0.07029343498410068,0.10641590027359937
1.604,0.10444361546024239,0.1305437343721354
1.608,0.14377589898113285,0.15872262583931862
1.612,0.1793628235798448,0.18385505260338375
1.616,0.20562286491807624,0.20122948981022915
1.62,0.22169643196412747,0.2097256481975145
1.624,0.23045901442368777,0.21084423437114497
1.6280000000000001,0.23571826613634905,0.20791771777043433
1.6320000000000001,0.2387105583537743,0.2046176228129979
1.6360000000000001,0.23753845527673167,0.20292456264038505
1.6400000000000001,0.23143041325265434,0.20305682227786748
1.6440000000000001,0.22429358779045216,0.205252342816876
1.6480000000000001,0.22230838115134666,0.2107223231660007
1.6520000000000001,0.22949081204398158,0.22168155062653105
1.6560000000000001,0.24651611033353116,0.2410440384125807
1.6600000000000001,0.2714330305710033,0.27002955963282105
1.6640000000000001,0.29881098187301913,0.30396094295544884
1.668,0.3166206157535416,0.32868352002357604
1.672,0.3038930711866792,0.3203258802670541
1.676,0.23481715717268714,0.2519702688566323
1.68,0.09249935142183618,0.10820361515956889
1.684,-0.10952073114638983,-0.09470587147128606
1.688,-0.3102278270246486,-0.29428898794077873
1.692,-0.41414166230931426,-0.3969787743430917
1.696,-0.3407918365078322,-0.3262763300723591
1.7,-0.07555918884804247,-0.06938408482466629
1.704,0.31415554277910895,0.30849823953246536
1.708,0.702691994754252,0.6852589164565757
1.712,0.9553430112525623,0.9281763190911467
1.716,0.9817000660157127,0.9475417807894819
1.72,0.7718379584120112,0.7346154972189989
1.724,0.4001974745090975,0.3662702159063833
1.728,-0.004490511529373076,-0.02704703424414967
1.732,-0.31000218661051937,-0.3153613288203061
1.736,-0.4317810186865999,-0.42036168785827943
1.74,-0.36340091173832967,-0.3421949641700067
1.744,-0.17080211204005502,-0.14958028047619853
1.748,0.0490129098173826,0.06311889239743618
1.752,0.2189828266115379,0.224476477662215
1.756,0.3084633086525801,0.30838462500886354
1.76,0.32731013814770815,0.32644557062865975
1.764,0.30510387800814853,0.3082817840981322
1.768,0.2715180729752973,0.28317269444292714
1.772,0.24519675794458928,0.26845321606532146
1.776,0.232559747889038,0.2667584371437659
1.78,0.23211330531183516,0.27142910626670225
1.784,0.23923735323708328,0.2753623500841904
1.788,0.24939529257478799,0.27564399498212233
1.792,0.2590161057280844,0.2723038959883668
1.796,0.26546251082621963,0.26650323611926785
1.8,0.267887836776157,0.2605067082763317
1.804,0.2671948021090289,0.25710842696140657
1.808,0.2640254406619005,0.25741040206024857
1.812,0.2570230378864433,0.2582969381200888
1.816,0.24341714378172852,0.2525155777430994
1.82,0.22197458045437135,0.2334871587457148
1.824,0.194665773034167,0.2002384616349948
1.828,0.16438334576276015,0.15707779832723
1.832,0.13254468721689738,0.11074661234754979
1.836,0.09965232249267597,0.06834116904687804
1.84,0.06711760099856368,0.03535256093271011
1.844,0.03847580645760251,0.014050537558521814
1.848,0.017968946877137126,0.0034910149782985123
1.852,0.007302468840478804,0.0013666212832688096
1.856,0.005734170103067759,0.006101297111330117
1.86,0.012932988292740921,0.01710526516712041
1.864,0.029544957163827545,0.03343328292040115
1.868,0.05595656621873313,0.05347144915573354
1.872,0.09131374702045991,0.0766054999754302
1.8760000000000001,0.13251869112085157,0.10451370180996444
1.8800000000000001,0.17425938066132152,0.1402671291798525
1.8840000000000001,0.21156314766417883,0.18539672329928392
1.8880000000000001,0.24264275256599843,0.23655177366012992
1.8920000000000001,0.26882540290654666,0.2851598621408604
1.8960000000000001,0.2927602431742282,0.32229651891054534
1.9000000000000001,0.3167049983050787,0.3448436131216577
1.9040000000000001,0.34065222523360617,0.3561665026328966
1.9080000000000001,0.36128491890891445,0.36166050190800636
1.9120000000000001,0.3733098901938796,0.36487162751717417
1.9160000000000001,0.373057718873939,0.3663804172240903
1.92,0.3610202385539951,0.3645662348067076
1.924,0.34025143485125997,0.35751331814759935
1.928,0.313713240437993,0.34418293625348517
1.932,0.28372011774235006,0.3239391934705851
1.936,0.2519590293504266,0.2964491857642704
1.94,0.2201300899273,0.26215698833104084
1.944,0.1906744047808573,0.22232401360409626
1.948,0.16454991960067056,0.1792468905942466
1.952,0.13909035239151613,0.13637978971978026
1.956,0.11131207438644686,0.09734068101440352
1.96,0.08281855059212528,0.06423753773568586
1.964,0.0586141556816524,0.03741858140999077
1.968,0.041731144360746875,0.01708020797877241
1.972,0.03170237505745588,0.004026499070857392
1.976,0.027559115516150978,-0.0009035451694927588
1.98,0.030014237321791315,0.0034185189063433707
1.984,0.04070495704660204,0.018635166318435648
1.988,0.06055269815802822,0.04548897429001175
1.992,0.08877054843588184,0.08245506170359174
1.996,0.122569191062458,0.12568253431841847
2.0,0.1582514973921081,0.1694344467260247
2.004,0.1923990223006682,0.20665925761499238
2.008,0.22100163328379874,0.23060266317266231
2.012,0.23896679975977175,0.23840698680318417
2.016,0.24326052161193168,0.23401785311103618
2.02,0.23667396700762589,0.22611738427666572
2.024,0.22648737722920598,0.222413005638453
2.028,0.21862539611498,0.22536973513784364
2.032,0.21385042487829486,0.23249311007542994
2.036,0.20958429343007956,0.23988250354482799
2.04,0.20398311044038064,0.2447481159120224
2.044,0.1979944729748886,0.24539523343034508
2.048,0.1949185105821205,0.24037724863740761
2.052,0.19742721047714973,0.2288083425751426
2.056,0.20392701307467553,0.2119736452882377
2.06,0.2094315036890504,0.1935064775924089
2.064,0.2102297840886873,0.1776677007100942
2.068,0.20624735264192684,0.1681036668952387
2.072,0.20001481163029977,0.16691943942696863
2.076,0.19490732337722716,0.17296070933381547
2.08,0.19287898388421199,0.18156995632110662
2.084,0.19255254044358905,0.18735178616052894
2.088,0.19095879675445926,0.18728891799670588
2.092,0.1875520735018108,0.18185766466194098
2.096,0.1845201055192902,0.17377820601154625
2.1,0.18335194733191318,0.16605452556833566
2.104,0.18328722382598261,0.16133188252653263
2.108,0.18260229894372104,0.16128593041099082
2.112,0.1805926808866989,0.16600631748254635
2.116,0.17860646959141357,0.17502785665236442
2.12,0.1781733603087603,0.1871701825044385
2.124,0.17868927730737494,0.19879439684247324
2.128,0.17858220577784856,0.20507395557173513
2.132,0.1776559535334885,0.203331831495414
2.136,0.17638833761552597,0.19462139207707496
2.14,0.17426377089851708,0.18319221681479925
2.144,0.17072459880328594,0.174374221938298
2.148,0.1662503657857155,0.17201796229732436
2.152,0.1620496306274326,0.17674171263874694
2.156,0.16033494482316635,0.1854151525932899
2.16,0.16337305945074942,0.19282231922252446
2.164,0.17072493024538415,0.1950730537362242
2.168,0.17942832820177013,0.19199413971748958
2.172,0.18712993276059864,0.1867706635136459
2.176,0.19297665518961793,0.18289695439001852
2.18,0.19613581049805662,0.18098874541951648
2.184,0.1955222406730155,0.1792454134492143
2.188,0.19113912399001998,0.17638768613630096
2.192,0.18518403134471995,0.1729114782879182
2.196,0.18155731795170071,0.16994703904507058
2.2,0.18312112165844407,0.16807634329288756
2.204,0.1889641346219102,0.1675965770595338
2.208,0.1955409378814965,0.16889897753794192
2.212,0.19961475397319872,0.1721068293759791
2.216,0.19881764499923582,0.17691980044813693
2.22,0.19198251178077053,0.1824605138148938
2.224,0.18059550398866797,0.18709237391088185
2.228,0.16830911103030854,0.18934243010269403
2.232,0.15902949507728859,0.18906654455924943
2.236,0.15594770699735916,0.18732995861588253
2.24,0.16012926588359644,0.1858357980257106
2.244,0.16882819267872584,0.18643274947343147
2.248,0.1769428934288988,0.19000585606127984
2.2520000000000002,0.18105230709297815,0.1953343896086812
2.2560000000000002,0.18148741464305607,0.19924039920047876
2.2600000000000002,0.18053844069914438,0.19896947593112735
2.2640000000000002,0.17984995211457555,0.19477034435467155
2.2680000000000002,0.17991845920988392,0.1886240620780062
2.2720000000000002,0.18064300124071186,0.1815870035662126
2.2760000000000002,0.1816414209683188,0.17471584028723575
2.2800000000000002,0.18297278674716044,0.17070901533078886
2.2840000000000003,0.1857295075020391,0.1722296715353353
2.2880000000000003,0.19072561885145145,0.17893330240624872
2.2920000000000003,0.19680990584918812,0.18719920459207606
2.2960000000000003,0.20155017892663207,0.19305906752112767
2.3000000000000003,0.20301285466093644,0.19469021409749976
2.3040000000000003,0.2009171236241969,0.1925326506906484
2.308,0.19662488306582881,0.18869901836374625
2.312,0.1915876573997055,0.1860333148217057
2.316,0.18688788822005997,0.18598560754686488
2.32,0.18442230213071542,0.18774184602154298
2.324,0.18566916777038367,0.18983763248302576
2.328,0.18890051325950186,0.19087943182286504
2.332,0.18986581842019223,0.18942219610362243
2.336,0.18576700901514775,0.18529764492585477
2.34,0.1779352441012385,0.18037208970775498
2.344,0.1707685413483655,0.17713166277052594
2.348,0.1688213433531527,0.1769798688814077
2.352,0.1746316954906335,0.1799932487254583
2.356,0.1874016029399217,0.18585206533987852
2.36,0.20267993215873226,0.19398443635620377
2.364,0.21404332805582804,0.20177467686276018
2.368,0.21510349421354302,0.20333031376709276
2.372,0.20066793531075722,0.19217608742496695
2.376,0.1697369950955292,0.16633018174191427
2.38,0.12887275642784513,0.1306399402612879
2.384,0.0904473134508772,0.09494329690381376
2.388,0.06673600940345348,0.07019960986259344
2.392,0.06493567386833443,0.06461259776299011
2.396,0.08569054587596558,0.08177495025609538
2.4,0.12499248393667028,0.12022257803217351
2.404,0.1768157124621912,0.17301788237548754
2.408,0.2337178395062114,0.22946782674167676
2.412,0.2862603445995231,0.27942845223944657
2.416,0.3246319907543409,0.3161799998950454
2.42,0.34208492754872033,0.3354918622439951
2.424,0.33625726468158446,0.33435001997846925
2.428,0.3078190973199151,0.3123139894728051
2.432,0.2595832359503234,0.27255329015891716
2.436,0.19772663227507659,0.22096537998900234
2.44,0.13257576446050523,0.16521797226568902
2.444,0.07647296252981461,0.11362649640546629
2.448,0.0404084897588588,0.07406415697177127
2.452,0.0314164627871909,0.05339446200772846
2.456,0.05011119714634993,0.05591433586218786
2.46,0.08887502784948031,0.08115467820437616
2.464,0.1343683761590435,0.12273044900004537
2.468,0.1744287925843604,0.16898949419458664
2.472,0.203071152024749,0.20720421387148558
2.476,0.2207279755676772,0.230319692538973
2.48,0.23184748600673544,0.2397555944312162
2.484,0.2402965857663122,0.24118407489803118
2.488,0.2455527855792643,0.23878406480918768
2.492,0.24489460002959373,0.23376832659307523
2.496,0.23833897447270758,0.22677276372655442
2.5,0.2296983219103239,0.22021080845974317
2.504,0.22457031251325899,0.21785088013001985
2.508,0.22793186401575682,0.22267535327277987
2.512,0.2422472781342715,0.23610038337922212
2.516,0.26704420045277977,0.258323667814361
2.52,0.29782756107712105,0.28659294049064266
2.524,0.32254317610616057,0.31115828057055483
2.528,0.3194033640537328,0.3123185310622154
2.532,0.2615987790634071,0.26267336954123643
2.536,0.1302786239105178,0.13923649995445286
2.54,-0.06636752874001917,-0.05353290104601849
2.544,-0.276420845856686,-0.26342996691479204
2.548,-0.4112904595683857,-0.39897208524690964
2.552,-0.386523336976742,-0.3737882764301703
2.556,-0.17071531707120247,-0.15728430062897236
2.56,0.19121747720000015,0.20278551209285833
2.564,0.5906710735344294,0.5943376193042242
2.568,0.8943482781811105,0.882395679881419
2.572,0.9946080077349371,0.9629897962703993
2.576,0.8534731822307671,0.8074966890541275
2.58,0.5201908812750262,0.4746574090953053
2.584,0.11228930765357203,0.08390925028312224
2.588,-0.2321095624122711,-0.23468216990766766
2.592,-0.4099153664911752,-0.39012841747840454
2.596,-0.391697422860107,-0.36127726278945127
2.6,-0.22620234873996103,-0.197772103808441
2.604,-0.00736495978765106,0.011554298213739544
2.608,0.1786091234438425,0.18725717024254696
2.612,0.28939460072620227,0.29213763027198514
2.616,0.32645903251303676,0.3300055473075225
2.62,0.3145073135647509,0.324434078730532
2.624,0.2822595553679337,0.30045244974518104
2.628,0.2518469677116555,0.2760650596853975
2.632,0.23480895734157148,0.25974810082524646
2.636,0.23221526592891073,0.25240383165543023
2.64,0.23829940181982767,0.25131009624505385
2.644,0.24629148428273373,0.2524175904091701
2.648,0.253066975740476,0.25246530353639796
2.652,0.2594797141421106,0.2514852377299801
2.656,0.2671291750701914,0.2525183741281669
2.66,0.2756790910642726,0.2579837797418423
2.664,0.28315453894543285,0.2658703756520664
2.668,0.28587758077999226,0.26919431074334654
2.672,0.2773040521894863,0.2596276050206088
2.676,0.2520527581578904,0.2333762249880904
2.68,0.2124044693301661,0.1945357472360134
2.684,0.16712280906189747,0.15228903020871676
2.688,0.12415169724898334,0.11464433436171184
2.692,0.08658753394532037,0.08426095342570816
2.696,0.05478975041738732,0.05957076022751928
2.7,0.029380587939571434,0.039099828168175366
2.704,0.01093080225109122,0.02366128641176468
2.708,-0.0006556832019138925,0.0151152354712778
2.712,-0.004345854522089354,0.014631468029064454
2.716,0.002619777156751768,0.022547491132053343
2.72,0.022041328404974525,0.03865553734644278
2.724,0.052137770859724375,0.06146793138666906
2.728,0.08741613850846419,0.08822836321019856
2.732,0.12152069884202432,0.11695025565327022
2.736,0.15186431967197112,0.14781091967082682
2.74,0.18124733868159404,0.1816169320674199
2.744,0.21409696408567647,0.2177942780846991
2.748,0.25144764048147805,0.2542719403396916
2.7520000000000002,0.2893534930699697,0.2881294204491591
2.7560000000000002,0.3216629837094469,0.31649672250189287
2.7600000000000002,0.3447837504905684,0.3377607984172575
2.7640000000000002,0.3595089890989358,0.3521283623950642
2.7680000000000002,0.3675206213148785,0.360852514324127
2.7720000000000002,0.36811593588789204,0.36484092594796347
2.7760000000000002,0.36026283813658133,0.36418358677560003
2.7800000000000002,0.3456044484494658,0.358226627266351
2.7840000000000003,0.3271576428389691,0.34558932036100987
2.7880000000000003,0.30637577902490354,0.32526033683332445
2.7920000000000003,0.2833272969098777,0.2978221075316625
2.7960000000000003,0.2585417646649377,0.26469333603815004
2.8000000000000003,0.23219420137462699,0.22668044780984742
2.8040000000000003,0.20243961891275442,0.1841769525561865
2.8080000000000003,0.1672502666333937,0.1389914792034257
2.8120000000000003,0.1272246974760709,0.09561817463582445
2.816,0.08553612551198286,0.05990777603123876
2.82,0.047072739554604226,0.03638387046748326
2.824,0.017633178563771112,0.026303687393990804
2.828,0.0016359596290818068,0.026766684910816574
2.832,0.0002576089530805792,0.03206245436794797
2.836,0.011443783519971662,0.03777129480741781
2.84,0.030824685884992764,0.04419561674028816
2.844,0.05395310805772624,0.05547235168134024
2.848,0.07915729056124277,0.0753365540637787
2.852,0.10769514754998522,0.10379521748598153
2.856,0.1406087251010535,0.1370183416923232
2.86,0.17593754173681297,0.16965443418561965
2.864,0.2090139156045956,0.19738142104649392
2.868,0.23471783011484604,0.21789368039978996
2.872,0.24992851940743455,0.2310848700130972
2.876,0.25465492403051515,0.23871679458074135
2.88,0.2508826160422484,0.24271393669472596
2.884,0.24132025126188217,0.24387385242303128
2.888,0.22913272124470851,0.24228494736286366
2.892,0.21717842667645493,0.23799530061940288
2.896,0.20743814960815388,0.23137336671991227
2.9,0.2013214748299823,0.22349370699678728
2.904,0.19922369199138856,0.21622258240376802
2.908,0.19956729044272548,0.21149883979849826
2.912,0.19968956501830437,0.2097711611933859
2.916,0.19802088273184726,0.20931356897978182
2.92,0.19484619181784701,0.20793568855465483
2.924,0.1912115749894856,0.20468685675133313
2.928,0.1881410713138576,0.19919832699709406
2.932,0.1872050683836617,0.1914053065314547
2.936,0.18962373250429132,0.18304165623772373
2.94,0.19405020014001106,0.17700112546238933
2.944,0.19760554675322162,0.1744247515756545
2.948,0.1989011611127225,0.1741689881785362
2.952,0.19854597105413863,0.17461200550040146
2.956,0.19743037022908272,0.17462602055658216
2.96,0.19499869584964546,0.17381544120043735
2.964,0.18949587739066942,0.17256589789727017
2.968,0.18045018807041613,0.1715614281227733
2.972,0.16985407256335772,0.17177213752150422
2.976,0.16097697690975532,0.17423249012838338
2.98,0.15731616143821725,0.17810987931169175
2.984,0.16073478448937162,0.18018691242212026
2.988,0.16917542025582732,0.17825395504383978
2.992,0.17807326449703154,0.17434669623374144
2.996,0.18434195061271708,0.17307581311661435
3.0,0.18789729421150758,0.1765084539280899
3.004,0.18953979898792817,0.18244440727314526
3.008,0.18876200494149753,0.1877552485840539
3.012,0.18450463653567573,0.19084746240457195
3.016,0.17723516925860294,0.19126627373935712
3.02,0.16931234860296152,0.18926470122133154
3.024,0.16351997159314302,0.18632296782847324
3.028,0.16170877102318126,0.18466993599822823
3.032,0.16412091550731023,0.18500602806837763
3.036,0.1694356975579132,0.18570876837540085
3.04,0.17580740600013223,0.18490913522149643
3.044,0.18153028066162413,0.1827669992035572
3.048,0.1852319850089208,0.18140809906343547
3.052,0.18658162767914543,0.18239861937766588
3.056,0.186298452587897,0.18510387495989922
3.06,0.18509147914558843,0.18793757350616458
3.064,0.18345562078294675,0.18979179648054179
3.068,0.18228934009833964,0.18987833108312158
3.072,0.18241923080531608,0.1872279177038958
3.076,0.1841919875557767,0.1811418117298449
3.08,0.18804422469451132,0.17275952570428132
3.084,0.19333758994175576,0.16552874057718214
3.088,0.19708631086122397,0.1628957073357189
3.092,0.19625231182482183,0.16576547146215637
3.096,0.19062127346418967,0.1721941875488191
3.1,0.1829245809638711,0.178724016087767
3.104,0.17684740356108497,0.18276006771694497
3.108,0.17474062189331874,0.18448249137212924
3.112,0.17678156917563737,0.18539150167601925
3.116,0.18137710323131295,0.18543795729144397
3.12,0.18609436040520833,0.18338374459691642
3.124,0.18899143590119505,0.17878409718993105
3.128,0.18941979182432522,0.17239949097251284
3.132,0.18758900551426572,0.16680805527167641
3.136,0.18407572980361286,0.16648268935671373
3.14,0.18017002126255477,0.17426177393778208
3.144,0.17759275151464182,0.18827858746485604
3.148,0.17728127787067494,0.20345068320354143
3.152,0.17893361743157477,0.21477015610150763
3.156,0.18143484376520358,0.21968244054806085
3.16,0.1833706418180443,0.21808306439402614
3.164,0.18382160217837562,0.21080948246198905
3.168,0.18318053139531765,0.19972114929674611
3.172,0.18294518431087936,0.1880066395804474
3.176,0.1845115908463033,0.17914436026653546
3.18,0.18779079938121046,0.1760224939197137
3.184,0.19045236808060717,0.17956194636354184
3.188,0.1899538241092238,0.18745907890162328
3.192,0.18732727617342793,0.1959018453890986
3.196,0.18676181706800277,0.2026222304819172
3.2,0.19105515435998166,0.20743834398048522
3.204,0.19889332232224866,0.210611174424163
3.208,0.20620684931827715,0.2117369108850844
3.212,0.20976358325561462,0.2095134500086
3.216,0.20909369199737005,0.20212109987659477
3.22,0.20463236078062108,0.18881051812341232
3.224,0.19511795539629295,0.17081424342258855
3.228,0.17765155026300072,0.15022907029073407
3.232,0.15032479042211544,0.12879038277678867
3.236,0.11550082084214286,0.1078213464001343
3.24,0.08089575187429454,0.0888556343145781
3.244,0.05707707783694049,0.07440024325022598
3.248,0.05320670120105042,0.06855867107260138
3.2520000000000002,0.07332863642824305,0.07631471305104065
3.2560000000000002,0.11493396994041616,0.1014447955815474
3.2600000000000002,0.1704348634035373,0.14472476259323375
3.2640000000000002,0.2295984019268651,0.20192831080348372
3.2680000000000002,0.2814042547341644,0.2625233607404227
3.2720000000000002,0.3166020078565137,0.3129205079299979
3.2760000000000002,0.3306747443491105,0.34231754809951553
3.2800000000000002,0.3240969048003124,0.345600685854645
3.2840000000000003,0.2999328614673149,0.32357738223612853
3.2880000000000003,0.26223052612283215,0.2819086461118194
3.2920000000000003,0.21606874937963583,0.22853040956385717
3.2960000000000003,0.16784285031604895,0.17245336921584697
3.3000000000000003,0.12472991114605114,0.12354779171165164
3.3040000000000003,0.09313793013467375,0.08981754833258826
3.3080000000000003,0.0776607700068177,0.07491051681315897
3.3120000000000003,0.08048254180573022,0.07885790986800578
3.3160000000000003,0.10024081818200536,0.09929604184524443
3.3200000000000003,0.1313805704728972,0.13095778735530028
3.3240000000000003,0.16485591586842063,0.16534862404819295
3.3280000000000003,0.19157666030810283,0.19405527316787796
3.332,0.20757631897951967,0.21397127236633562
3.336,0.21519462470733597,0.22748778347301446
3.34,0.2187563523651188,0.23755317525179742
3.344,0.2204936589617843,0.24412458999309417
3.348,0.22073591286988048,0.24449186503319376
3.352,0.22020469582604418,0.23671080716406645
3.356,0.22082301883070876,0.22291695121192423
3.36,0.22454259409197697,0.20887411879399265
3.364,0.23259638689223627,0.20178606818949762
3.368,0.24627023607455856,0.20860406804764886
3.372,0.2672413963230835,0.23298572336472056
3.376,0.2951977561608985,0.27099041204825625
3.38,0.32260930074919214,0.3085425028385309
3.384,0.3306126096180608,0.32222849576821444
3.388,0.29152555435936733,0.2837675206682222
3.392,0.17991981796126932,0.17076450046403013
3.396,-0.007785949784877011,-0.014615754764335187
3.4,-0.23135982920981546,-0.22814522268898185
3.404,-0.40496632201130733,-0.38683884816484726
3.408,-0.4330587116705976,-0.40287991170783544
3.412,-0.2645679183476519,-0.2305504763734335
3.416,0.07312861347342059,0.1037386426420126
3.42,0.4797404495865285,0.5042588426194154
3.424,0.8202434623921693,0.8394504267997327
3.428,0.9771630394855901,0.9923066983683095
3.432,0.896901169874827,0.9068575332420763
3.436,0.6106485520760088,0.6116784214626749
3.44,0.22005535071731597,0.21044460378611207
3.444,-0.14349452841346555,-0.15901093060643
3.448,-0.36791128252042127,-0.38079799740260767
3.452,-0.4013770512460946,-0.4063660755447883
3.456,-0.26967886958635556,-0.26826380278830175
3.46,-0.05690060701443256,-0.05439596817013315
3.464,0.143905183948416,0.1432663661388549
3.468,0.27575010062410876,0.27076662080192615
3.472,0.3295991525333075,0.3212933340659323
3.476,0.32856296425576126,0.3187342225016472
3.48,0.30436697891155484,0.29478888801351477
3.484,0.2794577005361638,0.27214380905095625
3.488,0.2618160220446504,0.2587935001548962
3.492,0.25083875288138757,0.2530056139850303
3.496,0.24457643629678438,0.25158626356762404
3.5,0.24185670832872108,0.25286111834537617
3.504,0.2415882742096387,0.25533788025071913
3.508,0.2429274050926542,0.2574082456722169
3.512,0.2459450013946507,0.25866456331180343
3.516,0.25156138626243374,0.2603300407108069
3.52,0.26039846697368185,0.26310156449180755
3.524,0.27013716994755477,0.2650385471228285
3.528,0.2734740728612892,0.2620806294439433
3.532,0.2612095293812484,0.24934049475385756
3.536,0.22971589753116484,0.22294909256976547
3.54,0.1846620604434166,0.1832894294062113
3.544,0.13669171047334028,0.1364365240253962
3.548,0.09486270991355816,0.09127025501520558
3.552,0.0633996300002777,0.054835577192920315
3.556,0.041446596517050294,0.030055269967335763
3.56,0.025497211048430612,0.016147858938318382
3.564,0.013392672522488436,0.010204413573506432
3.568,0.006463993350233288,0.009727640660065262
3.572,0.008001485672443742,0.014156592619421149
3.576,0.019791520606787794,0.024077967516936694
3.58,0.04079609871260215,0.04029205548615078
3.584,0.06841557994750125,0.06368208395128683
3.588,0.09933728727271496,0.09489827530796124
3.592,0.1304923428110749,0.1333884995362029
3.596,0.16119243348242396,0.17684802631049057
3.6,0.1939076669813542,0.22147826356627753
3.604,0.2314553943872566,0.26219326037694235
3.608,0.2725927538942723,0.2942409387643554
3.612,0.31145680727593206,0.31635627459065585
3.616,0.3425601597296206,0.33155842081799514
3.62,0.36483145117214555,0.3445891614826939
3.624,0.3794406205688732,0.3585207582052561
3.628,0.3862508361645094,0.3724216800450433
3.632,0.38442122422750247,0.38189016253051755
3.636,0.3743560930171659,0.3821976231811044
3.64,0.3574500039406825,0.37071900471890906
3.644,0.3349621596807737,0.34716980540443676
3.648,0.30759542210556057,0.3126351592702563
3.652,0.2754877484808116,0.2692523160088711
3.656,0.23828474048055348,0.22146510751469717
3.66,0.19564682669493783,0.17581858767900793
3.664,0.14921221275899366,0.13743573107518214
3.668,0.10405118420159165,0.10686057292159679
3.672,0.06613571319244516,0.08126461185454037
3.676,0.03839470282100432,0.05848748555330796
3.68,0.019716653099696613,0.03855461267419513
3.684,0.0071415478462035775,0.021990236025980492
3.688,-0.000580045681006669,0.009295404274950458
3.692,-0.0011171121916778715,0.002540661429823121
3.696,0.009377505484744475,0.005597277599197925
3.7,0.03234234297955196,0.021253482053048778
3.704,0.06516893285424952,0.04870589297956962
3.708,0.10249627017550633,0.08495780669633457
3.712,0.13908200562767847,0.12716361224606465
3.716,0.17232787406735683,0.17240973998038145
3.72,0.20146209045956098,0.2156344302311306
3.724,0.22480577656354983,0.2483182019694139
3.728,0.23972649280234215,0.26266218167947697
3.732,0.24563045325297206,0.2589289793423857
3.736,0.2453286039669298,0.2453976172606358
3.74,0.24221843932112952,0.2312851490480794
3.744,0.23788441286943618,0.22255531782698013
3.748,0.233225368171448,0.2216132802634878
3.7520000000000002,0.2290468994569841,0.22712818213495956
3.7560000000000002,0.2252045904993596,0.23483931486688991
3.7600000000000002,0.22182848364901853,0.2394160081362946
3.7640000000000002,0.21959107437811864,0.23670950817899028
3.7680000000000002,0.2168869351673588,0.22647209120501022
3.7720000000000002,0.2105533147648595,0.21244728847520866
3.7760000000000002,0.20014883388028037,0.1987827139201903
3.7800000000000002,0.1885670793955423,0.18731278163361642
3.7840000000000003,0.17923976388262974,0.1782602340911026
3.7880000000000003,0.17444074365460027,0.17205719258860253
3.7920000000000003,0.175257530092517,0.16951525619947283
3.7960000000000003,0.1813912208739683,0.17036416085362815
3.8000000000000003,0.19053783229252907,0.1727635928184641
3.8040000000000003,0.19899768112267902,0.17459006943899058
3.8080000000000003,0.2032932205115543,0.17494266870983677
3.8120000000000003,0.2011549194629818,0.17486971325382128
3.8160000000000003,0.1927871226470419,0.1762841466422198
3.8200000000000003,0.18204446642659722,0.17959333753224604
3.8240000000000003,0.17417723112472117,0.18264984829401354
3.8280000000000003,0.17150562080483844,0.18272258283003073
3.8320000000000003,0.172371769432214,0.17971779288106693
3.8360000000000003,0.17356081751162122,0.17624186490954097
3.84,0.1725302940212261,0.1750153599775668
3.844,0.16923958626772495,0.1772695395719066
3.848,0.1668242433796201,0.1819474927060416
3.852,0.16833546709829328,0.18613329603151407
3.856,0.1730480524684408,0.18743005643835176
3.86,0.17751277734837,0.1856283939777139
3.864,0.1791848773730056,0.1823005070891186
3.868,0.17819875382896022,0.17945475828213908
3.872,0.17645561149153188,0.17783002132921277
3.876,0.1756544554449313,0.17678531950845855
3.88,0.17624631934695323,0.1767192185538613
3.884,0.17757147786706073,0.1796621269414007
3.888,0.17865092885101497,0.18657944733294318
3.892,0.17960173287126313,0.19570035491972226
3.896,0.1816580206807834,0.20346610993421987
3.9,0.1849709193785085,0.20672183806792988
3.904,0.1874801525004226,0.20446913264545197
3.908,0.18694211254184112,0.19753061374512204
3.912,0.18397717905749156,0.18770069177006632
3.916,0.1814361835911984,0.1784011613302705
3.92,0.18062103984324573,0.17396262410629215
3.924,0.18086333729688153,0.17576264151896193
3.928,0.1817066376091645,0.18074205792141695
3.932,0.18230168335467933,0.18510063083818262
3.936,0.18036363639228048,0.18739342986986762
3.94,0.17475478868818195,0.18779267697118507
3.944,0.16811025636163102,0.18608810301133283
3.948,0.1649393673501156,0.18157732059925058
3.952,0.16791196412416776,0.1751613142572641
3.956,0.17621061905311008,0.16936857260301452
3.96,0.18607938558873216,0.16563705511451543
3.964,0.19337900406266173,0.1639922029436489
3.968,0.19661656712147835,0.16459294624095122
3.972,0.19716971822263263,0.16687597714662306
3.976,0.1967948823961021,0.16848019111535972
3.98,0.19619585259258132,0.1675066291480285
3.984,0.1951941716539749,0.165095753163782
3.988,0.19250606281713178,0.16413471336939756
3.992,0.18731209512653213,0.16621951982303274
3.996,0.18220519108456923,0.17078439741655682
4.0,0.1814888209241694,0.17598226112645232
4.0040000000000004,0.18577969022443575,0.1802458463205998
4.008,0.19054846653724256,0.18421811958335277
4.0120000000000005,0.19057553352269507,0.19042743894392622
4.016,0.1846307364003672,0.20003101533250445
4.0200000000000005,0.17561227714511052,0.21119931033382922
4.024,0.16771412970052735,0.22115073248404937
4.0280000000000005,0.1640991813142365,0.22778479718111422
4.032,0.16605016499134773,0.22914170698593006
4.0360000000000005,0.1729123131361472,0.22388364048870235
4.04,0.18254612613804033,0.21362143746345152
4.0440000000000005,0.19226439260638983,0.2031815521742073
4.048,0.19974917783537638,0.1969441329145678
4.0520000000000005,0.20394941881762962,0.19527895793604944
4.056,0.2057874414042562,0.19525046567993853
4.0600000000000005,0.20733381947288798,0.19382907112169634
4.064,0.20966621994649337,0.1895637763954614
4.0680000000000005,0.21216556682635868,0.18299501232624404
4.072,0.21347702752537057,0.17684332188919272
4.0760000000000005,0.21165932454765013,0.17412437368358846
4.08,0.20391626004209806,0.17461132582409133
4.0840000000000005,0.18749335469258366,0.17328312547923708
4.088,0.16126645912975768,0.1637252183368929
4.0920000000000005,0.12720189111885705,0.14425423845094643
4.096,0.09116188305649264,0.11978163375683049
4.1,0.0621135460203015,0.09801391017055683
4.104,0.048901730751881756,0.0856398637748974
4.108,0.05636023950546609,0.08706546511968982
4.112,0.08392908906461405,0.10401004155433369
4.116,0.12711294579986432,0.1348316036634316
4.12,0.17986509984347565,0.17475925524100422
4.124,0.23570943316327608,0.21837781799356093
4.128,0.2875032480336175,0.2611065336238443
4.132,0.3276508025621001,0.29735236969101986
4.136,0.3490471322586304,0.31936113714608605
4.14,0.3463712618219412,0.31937749958530093
4.144,0.3176744763962964,0.293777727523739
4.148,0.266257506665015,0.24654807506306176
4.152,0.20181841895817776,0.1886249837732492
4.156,0.13825665879247317,0.1329030606956787
4.16,0.08890380836392642,0.08968034404265657
4.164,0.06260675709581687,0.06598458161271181
4.168,0.06155308640045498,0.0656545160971973
4.172,0.0815557593400642,0.0873545672934466
4.176,0.11474781623916619,0.12398344029850428
4.18,0.15165389596735723,0.16502914921974376
4.184,0.18285691356534595,0.20000053214274804
4.188,0.20305965949586713,0.22251241911666475
4.192,0.2135549979475413,0.23288751149685227
4.196,0.21843909489401758,0.23652464420230146
4.2,0.22003614595806353,0.2388928603671585
4.204,0.21904553326401288,0.24140979594577505
4.208,0.21659033826326812,0.24189275132618704
4.212,0.21489110503251663,0.23845189442800319
4.216,0.21645392217893678,0.23278274755203343
4.22,0.22292585657707953,0.22958180123675187
4.224,0.2350231242125438,0.23341732117128355
4.228,0.2535249175383072,0.24716677206173565
4.232,0.2792458021464981,0.27117989689170097
4.236,0.30912695155260717,0.29988307482934573
4.24,0.32925855742605914,0.3171527515793413
4.244,0.3124668423599941,0.29584705161279334
4.248,0.22854122629147589,0.2068755783897298
4.252,0.06560613736295307,0.03950069758691299
4.256,-0.148733274990702,-0.17553695496861388
4.26,-0.34198648502615436,-0.3613683159058133
4.264,-0.42033500395998313,-0.42403088861472904
4.268,-0.31594770770489267,-0.30153506916952244
4.272,-0.02886452264322137,-0.0014254238669419994
4.276,0.36375272557078375,0.3938777836351195
4.28,0.7339999673065878,0.7550892486839307
4.284,0.9514970439146138,0.955961806594102
4.288,0.936171445670567,0.9250253813182083
4.292,0.693587080730772,0.6754694010053368
4.296,0.31261659371961437,0.2984138793005504
4.3,-0.07292281607723572,-0.07582030748391888
4.304,-0.33758392877859345,-0.328573745714587
4.308,-0.41163447892712735,-0.395942546869144
4.312,-0.3057571890888099,-0.290506256713003
4.316,-0.09862311606615415,-0.08874562679004272
4.32,0.11164162959332602,0.1157037041785487
4.324,0.259260636711943,0.25990300854791704
4.328,0.32801374163616814,0.3264574641860185
4.332,0.3357110808806494,0.33046983595166446
4.336,0.3115342992516119,0.2999594032189956
4.34,0.28000271338204485,0.26088111194784824
4.344,0.2549397078727831,0.23033039470654337
4.348,0.24106722480740395,0.2157113890091893
4.352,0.23720238125281456,0.21677434426208375
4.356,0.23914785771378444,0.22836335050660606
4.36,0.2424720088805139,0.24276440276045874
4.364,0.24433010801277288,0.2535153126663152
4.368,0.24466204161035288,0.25888670172080985
4.372,0.24595563782756935,0.26089665345178736
4.376,0.2503139822502545,0.26204059690142034
4.38,0.25659920832139194,0.2636292564410787
4.384,0.26040633199303187,0.26491881782663285
4.388,0.2556692072797544,0.262215940820544
4.392,0.2374264427702848,0.25061922025048955
4.396,0.20544289619320222,0.22806567698758995
4.4,0.16471984674155782,0.19606058486179534
4.404,0.1218464518308704,0.15651478298487076
4.408,0.08148970291768154,0.11121475431694505
4.412,0.04599659439130299,0.0645633527378715
4.416,0.017623932817987686,0.023382733838635206
4.42,-0.00022083566117159226,-0.006302210862100255
4.424,-0.005397984522697352,-0.02097796427946841
4.428,0.0008802927329545351,-0.019924582206300445
4.432,0.016148857773587766,-0.005035020410045221
4.436,0.03871379084747484,0.02056396949473771
4.44,0.0668622006188957,0.053783367957875194
4.444,0.09901840889505142,0.0915813741327638
4.448,0.13452448080677204,0.13064775897692193
4.452,0.1726211340778454,0.16810175123451843
4.456,0.21129838938727863,0.20300743513041009
4.46,0.24729812195688528,0.2358246759185325
4.464,0.27759943140844445,0.2663474904272749
4.468,0.3017904296404257,0.29411037360223347
4.472,0.3226681980812125,0.31970021809275573
4.476,0.34373879585758416,0.34385581352878103
4.48,0.365861490703707,0.3653272931082212
4.484,0.38554612734065197,0.37983052434113507
4.488,0.3958943811467337,0.3827145268591001
4.492,0.3911460488793952,0.37344922381803336
4.496,0.3709059454573511,0.3560030864543886
4.5,0.3385107699523855,0.3348663395156355
4.5040000000000004,0.2976575141508184,0.3115286059648523
4.508,0.2525293331875982,0.284257417074645
4.5120000000000005,0.20785629766052227,0.25052978637372614
4.516,0.16641237412280452,0.20999111080397093
4.5200000000000005,0.12826491008404628,0.1661121376517709
4.524,0.0939466648410141,0.12451264217675595
4.5280000000000005,0.06640096712734755,0.08889183315680516
4.532,0.048234338566740975,0.0596274608552374
4.5360000000000005,0.03844030353304162,0.035892593184355226
4.54,0.032965982698700325,0.017732879942572888
4.5440000000000005,0.028108555801386492,0.006996970557794802
4.548,0.023543557796972037,0.00610876950338457
4.5520000000000005,0.02301436954843994,0.015294368252736668
4.556,0.03181259111364643,0.03296979416478463
4.5600000000000005,0.053242953905481505,0.05816158571762653
4.564,0.08764894283495206,0.08985390249285885
4.5680000000000005,0.13255208522899276,0.12524734036098906
4.572,0.18162976909431627,0.16006521426719322
4.5760000000000005,0.22504585709200642,0.19004569564102725
4.58,0.2534073658821523,0.21262690445947796
4.5840000000000005,0.2631381738814229,0.2274785512391082
4.588,0.2584724016028874,0.2361158530223917
4.5920000000000005,0.24779380925413586,0.24113587162902994
4.596,0.2376742465456887,0.24395518453578258
4.6000000000000005,0.22983552966555765,0.24367710428788736
4.604,0.22226601207665886,0.23913642400307
4.6080000000000005,0.2122867862014317,0.23120279538965827
4.612,0.1997287868397506,0.2231305680972353
4.616,0.1884432682487922,0.21846606149781045
4.62,0.18443183996320855,0.21794295327257562
4.624,0.1908290090682616,0.21859196644718715
4.628,0.20380503041074238,0.21673841880894074
4.632,0.21505403454678929,0.21195910199466028
4.636,0.21858707799783672,0.20648973055899833
4.64,0.21353941283268796,0.2017824342530321
4.644,0.20185860612166873,0.19786288482076375
4.648,0.18641052834817673,0.19442095901304124
4.652,0.17165026565539732,0.19115215585942202
4.656,0.16311669881669144,0.18746395018616369
4.66,0.16399765011805711,0.18217200762919306
4.664,0.17295547274739764,0.17452819662078212
4.668,0.18561190770112534,0.1659184143914756
4.672,0.196894315432822,0.15955126937525077
4.676,0.20190251685944127,0.1576945755589343
4.68,0.19713439250893794,0.15970063168279314
4.684,0.18353002210492875,0.1631554902683019
4.688,0.16737857816928714,0.16630602125288263
4.692,0.156142908701695,0.16959597476547184
4.696,0.15323263146159594,0.17506968361163122
4.7,0.15733570661995633,0.1836922429192529
4.704,0.1661183425503825,0.19351610847436707
4.708,0.1778873812810613,0.2005318923472239
4.712,0.18965228298423376,0.20101735208802318
4.716,0.1978703205612493,0.19408369040998164
4.72,0.20148125131529215,0.18315762975765915
4.724,0.20180195233680553,0.17433774116470624
4.728,0.2002422523100731,0.17210542809626594
4.732,0.19684780996385354,0.17647070843092916
4.736,0.1910613545257036,0.18416417162561505
4.74,0.18357982084896785,0.19189180542505868
4.744,0.17622948655169113,0.19750641798789847
4.748,0.17053858638518538,0.19876584768591976
4.752,0.1673996603793506,0.19369642560467004
4.756,0.16746329911915847,0.1831580270459776
4.76,0.17103787130920312,0.17128038674811408
4.764,0.17707815990642084,0.1627482434614944
4.768,0.18239858652100827,0.1607970434202195
4.772,0.18340554021177313,0.1662472714185299
4.776,0.1789794526672568,0.17614583531253536
4.78,0.1705631632568163,0.18542063065679582
4.784,0.1603695956788278,0.19142124573865216
4.788,0.1510411296310863,0.19490677009832513
4.792,0.14627828291783684,0.1966162738327497
4.796,0.1495829421546251,0.19524376253347153
4.8,0.1613544043794055,0.18935990325581775
4.804,0.17795457115401847,0.18005718064960563
4.808,0.19393339175769686,0.17102069540819675
4.812,0.20498864573728914,0.16601643908838093
4.816,0.2092618323094937,0.16611890798360474
4.82,0.20720247963839333,0.16934920380018292
4.824,0.20139759094629262,0.1730624389571791
4.828,0.19561953002685373,0.17642874694955268
4.832,0.19247613297625876,0.18044890191945928
4.836,0.1922866913296517,0.1861144339015448
4.84,0.19429124779146534,0.1927640806762252
4.844,0.1975190426691107,0.19777292679373693
4.848,0.2010183635920746,0.19836730768246524
4.852,0.20435130838685955,0.19406496847099275
4.856,0.20681172426711303,0.18707694358225102
4.86,0.20634876933689417,0.18121690798478074
4.864,0.20093975987080714,0.18027836764400207
4.868,0.19114389014258326,0.1857169486824879
4.872,0.180197208094939,0.19530928258144264
4.876,0.17146053825058538,0.20422035947934747
4.88,0.166722535674239,0.20748792671299876
4.884,0.16638986522533017,0.2026413864011265
4.888,0.16988272395290593,0.19131521256834216
4.892,0.1758207272943415,0.17836653017924653
4.896,0.18193782636895905,0.16927529341756675
4.9,0.18531513263220512,0.16770529422026947
4.904,0.18411160577681995,0.17342448494643392
4.908,0.17947958914343043,0.1821473797997002
4.912,0.1751832770679531,0.1888475307976718
4.916,0.17474305666806766,0.1913546830650079
4.92,0.17882709053559598,0.1904596473978859
4.924,0.1852952074275731,0.18859391205992027
4.928,0.19096713754166328,0.18969303489155465
4.932,0.19347173750424407,0.19681442106499292
4.936,0.19214217726058824,0.2070740546138734
4.94,0.18630182786664462,0.21092243958395285
4.944,0.17291705711760397,0.19844213975490854
4.948,0.1489021328256046,0.16722568944860994
4.952,0.11651129206754063,0.1252694646902004
4.956,0.08466250043507428,0.08640772519771156
4.96,0.06489345662702117,0.06288625850660856
4.964,0.06605170921828085,0.0617514194491664
4.968,0.09100183995387612,0.08449475802456008
4.972,0.13615841177437904,0.12676815601059577
4.976,0.19273184914370112,0.18025387223809286
4.98,0.24966739941939697,0.23618852662387368
4.984,0.29778790651513054,0.2862068855175226
4.988,0.3314154226654906,0.3222027972103729
4.992,0.3469066584668101,0.3381578475914626
4.996,0.34143062518272504,0.33163801318797725
5.0,0.31339117790205684,0.30358373999393673
5.0040000000000004,0.26510379648506777,0.25808530082924275
5.008,0.205405691451507,0.20236185646307514
5.0120000000000005,0.14678442061054753,0.14592992759027124
5.016,0.09918529309098889,0.09851104582550763
5.0200000000000005,0.06827146987506416,0.06748783623148524
5.024,0.05783076975456303,0.056975308850347295
5.0280000000000005,0.06980525299095452,0.06766885556784774
5.032,0.10113727624240676,0.09579806948404568
5.0360000000000005,0.1424768534918015,0.13318468480394108
5.04,0.1812547254489849,0.1702511351551259
5.0440000000000005,0.20732900331864434,0.2004005523106196
5.048,0.21777181680308355,0.22176643686687303
5.0520000000000005,0.21709641841550265,0.23541482087624677
5.056,0.2123716049233022,0.24275406822646284
5.0600000000000005,0.20794821334545954,0.2439378494384401
5.064,0.2047439819601693,0.23882720825207415
5.0680000000000005,0.2033449600855648,0.22925580563584758
5.072,0.2064644675572247,0.21926608125085778
5.0760000000000005,0.21770814913556125,0.21390082855637194
5.08,0.23781414310661697,0.2179582886556548
5.0840000000000005,0.2633239092003641,0.23421595375773463
5.088,0.2896003784197707,0.2615133109553285
5.0920000000000005,0.3126014343988448,0.29369932590781267
5.096,0.3248217649028913,0.318031222969839
5.1000000000000005,0.3101571665745233,0.3126690914705492
5.104,0.24542636281463337,0.24971938168219654
5.1080000000000005,0.11181984923783728,0.11019395974730961
5.112,-0.08360950701216563,-0.09272397131304966
5.1160000000000005,-0.2871981929032422,-0.29815780492558863
5.12,-0.40610980354921566,-0.4122617914091271
5.124,-0.35518255282400457,-0.35533263095138345
5.128,-0.11075671408155696,-0.10957146014231611
5.132,0.26832170324219096,0.26466463097114423
5.136,0.6609290676228143,0.6497500047035372
5.14,0.9310000082401306,0.9153381910843279
5.144,0.9810977673249792,0.968035058446804
5.148,0.7911451744795568,0.7888721040802751
5.152,0.42710072875776084,0.44212428540597504
5.156,0.014789116520846024,0.048996592622181145
5.16,-0.3105033341790654,-0.26121215046123925
5.164,-0.456614146076863,-0.4006822941939051
5.168,-0.4072632871400139,-0.35426037507935115
5.172,-0.21988460303893587,-0.17844419002437373
5.176,0.011347541668467853,0.03429239026595621
5.18,0.2046091819461031,0.20568733962031294
5.184,0.320588211805088,0.3017573406510896
5.188,0.3618995422868436,0.32879942286140085
5.192,0.3542479024271581,0.31321868576841716
5.196,0.3265055570582005,0.28347012043164743
5.2,0.2977583893614073,0.25835601951409237
5.204,0.2742981896115315,0.24408685027928945
5.208,0.2558783820798265,0.23948804265258583
5.212,0.24247819259973658,0.24137143772052605
5.216,0.2348885489915855,0.24591272522876606
5.22,0.2326619097690814,0.24993615263245683
5.224,0.23419991427381337,0.25292066317220696
5.228,0.2385326228141178,0.25675481260250543
5.232,0.24592082438623342,0.2632543099372706
5.236,0.2559853986628682,0.27093000553618407
5.24,0.26474279588625094,0.27421089591110426
5.244,0.26460523798745417,0.26735297416158277
5.248,0.24985496982634792,0.24866268354616627
5.252,0.22144609081065325,0.22012077895914461
5.256,0.18453926623227312,0.18417322704473427
5.26,0.14386192938529718,0.14259852369180903
5.264,0.1029533310724533,0.0981780186527641
5.268,0.06481092911386455,0.05580949114302158
5.272,0.032254844085565004,0.021388737768161636
5.276,0.008619145667279726,-0.0006294351884397198
5.28,-0.0029018773893572103,-0.009029338699382383
5.284,-0.0012332995900871113,-0.005443103877258104
5.288,0.011745800427725328,0.006851840481566951
5.292,0.03222067623887881,0.0240975023893637
5.296,0.0561482808738476,0.044148432930583015
5.3,0.08128397947912225,0.06736393390930728
5.304,0.1084867087769521,0.09544363642158826
5.308,0.13982384209028442,0.13044024284075428
5.312,0.17506411560392898,0.1731510661066431
5.316,0.21102176691128482,0.22096924142581953
5.32,0.24400317929575066,0.26803361555902927
5.324,0.27261387863275566,0.307864176946232
5.328,0.29836381511714305,0.3374646639161998
5.332,0.3232057628571612,0.3596282782525362
5.336,0.34737180104492027,0.37832944257066914
5.34,0.3696088069053858,0.3922003747794569
5.344,0.38694875229695946,0.39613822709785595
5.348,0.39416994591735643,0.38764751322189483
5.352,0.3861074729990295,0.3684755069482202
5.356,0.36178223540479904,0.34222092293614703
5.36,0.32611539850447624,0.3124363411803319
5.364,0.2867053469920169,0.2811194167519413
5.368,0.24883656865738168,0.24786543084536317
5.372,0.21366071789334806,0.21160974819506073
5.376,0.17943865362326106,0.1734998377630037
5.38,0.14394301303799062,0.13664317712289087
5.384,0.10711060882552315,0.10264519615583345
5.388,0.07206288505517144,0.07097238904238634
5.392,0.04362448398880803,0.04241450428602467
5.396,0.025665985280242554,0.020186408354003316
5.4,0.01872032239039889,0.0072614066730680715
5.404,0.019740585743255323,0.004599363630450881
5.408,0.025047721785390165,0.011647379818536363
5.412,0.03349107864068057,0.02689843574543649
5.416,0.046592563360684736,0.048107820567574455
5.42,0.06674138448019762,0.07371909605826188
5.424,0.09527359364323518,0.10398801905341815
5.428,0.13067185966744632,0.13943485134597045
5.432,0.1682604003628061,0.1780772580407386
5.436,0.20235055928167722,0.21461886098646232
5.44,0.2284792702360703,0.24300615600772169
5.444,0.24430331274800499,0.2595207796385537
5.448,0.2504551942098119,0.2629456285378047
5.452,0.2502719249479599,0.25403986819724134
5.456,0.24686806841678144,0.23682396327351518
5.46,0.24106567288212188,0.21808961250234415
5.464,0.2332051468907248,0.20412205430009145
5.468,0.22535636884472354,0.19867169406156138
5.472,0.2197416504742895,0.2023270870802376
5.476,0.21601330375705619,0.21220555360579918
5.48,0.21204151738708643,0.2230766439906302
5.484,0.20653482531794287,0.2292467385710264
5.488,0.19995908536037943,0.22670984834089647
5.492,0.1939976424624883,0.21552786120297518
5.496,0.19031592564383049,0.19992202905655754
5.5,0.1890164933126306,0.18535744560645506
5.5040000000000004,0.18812265415840113,0.1757827184027836
5.508,0.1847870467848658,0.17294972766002004
5.5120000000000005,0.17793180997578628,0.17666860961143538
5.516,0.17023454925288584,0.18464492434103819
5.5200000000000005,0.16641087564873036,0.19313523556371193
5.524,0.16915198789605967,0.19937760614536648
5.5280000000000005,0.17728163183567447,0.2023240592424782
5.532,0.18739380418076523,0.2008799559294192
5.5360000000000005,0.19645404159205127,0.19444584592653946
5.54,0.20247813163207562,0.18498710851867028
5.5440000000000005,0.20392210490015894,0.17583644281932997
5.548,0.20011123779910567,0.16931339070228324
5.5520000000000005,0.19167390711579446,0.16632629491536188
5.556,0.18030362413761303,0.16624163728254526
5.5600000000000005,0.16891365966168137,0.16694882441087944
5.564,0.16138870828153085,0.1665032026859241
5.5680000000000005,0.16048121212960265,0.16494502716971748
5.572,0.16525932995667358,0.16444968346269584
5.5760000000000005,0.17164879466362004,0.16751268765871052
5.58,0.1753517560761082,0.1742666999681397
5.5840000000000005,0.17423360299092927,0.1818605401136688
5.588,0.1696241933117253,0.18714776890096685
5.5920000000000005,0.16503430272497144,0.18900497747879474
5.596,0.16269057900243,0.18826782367503214
5.6000000000000005,0.16235324380411886,0.18706230056773165
5.604,0.16334015858334583,0.18751473976785382
5.6080000000000005,0.16609651621464194,0.18978901917661317
5.612,0.17155396574841242,0.19154630071897372
5.6160000000000005,0.1797460686741461,0.19013720316209026
5.62,0.1894863309602739,0.18547449047225628
5.6240000000000006,0.1989508422865578,0.18025516758309412
5.628,0.20616166235303512,0.17739967603649798
5.632,0.20945244508278882,0.17761822704111618
5.636,0.20801590803220593,0.17934534657391765
5.64,0.20209813989639502,0.17997511214529882
5.644,0.19298199757750512,0.17717229809666768
5.648,0.18337614191745732,0.17093396659654614
5.652,0.1770143993065314,0.16433591302908712
5.656,0.17624611885819497,0.16104338139244923
5.66,0.18024063816296287,0.16294724068640054
5.664,0.18591909199592593,0.17009822499583138
5.668,0.18992578991804598,0.18094045365446632
5.672,0.19008223737731522,0.19216676402558952
5.676,0.18630174632145247,0.20007681618752748
5.68,0.1807004639624108,0.2033685721011662
5.684,0.17639442764691848,0.2037909579139625
5.688,0.1752781645236663,0.20345488693229674
5.692,0.1764749436016213,0.20214922806685842
5.696,0.1772098873062662,0.19770882823923097
5.7,0.17531145208606258,0.1890494277543031
5.704,0.17134771257145442,0.17837853007606852
5.708,0.16851372158671896,0.17012941225293976
5.712,0.1696763079185737,0.1677122900134571
5.716,0.1748930598464098,0.17101089590857477
5.72,0.18163963670001282,0.17731120885840723
5.724,0.18642285552153903,0.1841761480383466
5.728,0.18749525505727704,0.1904714704329371
5.732,0.18668586058573644,0.195961798032948
5.736,0.18726623173493562,0.20085783951572145
5.74,0.19077564374277145,0.2044997462876541
5.744,0.19684150004462952,0.20494546297030913
5.748,0.20419176669290007,0.20096344064795657
5.752,0.21075717738402577,0.19343415750995452
5.756,0.21434371838837007,0.18499025864809737
5.76,0.21377436455865317,0.17909995760273234
5.764,0.20893379159700243,0.17824595261104292
5.768,0.20063229326597876,0.18221142999854822
5.772,0.1911319306658661,0.18836056534583645
5.776,0.18396222735899626,0.19360615709428153
5.78,0.18173823373808284,0.19635280398732813
5.784,0.18372420270726897,0.196950913388803
5.788,0.18619174095988233,0.19650073998598194
5.792,0.18513391664770973,0.1948420922382832
5.796,0.17794015449746126,0.1894589489235845
5.8,0.1628438179317957,0.17684560946919214
5.804,0.13939860039906038,0.15533805706356718
5.808,0.11064489987578807,0.12712970156713088
5.812,0.08244769871932345,0.09830594510203983
5.816,0.06075558545936954,0.07704679218490229
5.82,0.051510657563572204,0.07066913844921663
5.824,0.06140673635924876,0.08280615817324755
5.828,0.09524888630169914,0.11279044496717594
5.832,0.15109081319606488,0.15686292208344788
5.836,0.218391447870683,0.20892352606378206
5.84,0.2819832740734953,0.260860265603591
5.844,0.3286344393043725,0.3038897605412192
5.848,0.3513070147393387,0.3306483214538476
5.852,0.34902707410431044,0.336063407275345
5.856,0.3240816218931568,0.31769307259385116
5.86,0.2808957875565854,0.27741223421845285
5.864,0.2271338573265662,0.22260438469740307
5.868,0.17260339004955272,0.16492976933612402
5.872,0.12595258060674674,0.11641372040577691
5.876,0.0932853879816804,0.0843967697142256
5.88,0.07855365032658534,0.06997298886768322
5.884,0.08318233389644925,0.07150684882921476
5.888,0.10488310794201983,0.08806582446418831
5.892,0.13755463898863263,0.11846441479422176
5.896,0.17311729282251753,0.15835846213801563
5.9,0.20377748817955244,0.19951003220648578
5.904,0.22366620094202472,0.23247009420875586
5.908,0.23040615490132188,0.2512145402556334
5.912,0.22600112539761352,0.25545408782076184
5.916,0.21575776964199767,0.24852651286523475
5.92,0.20568962942593938,0.23469016582362845
5.924,0.19950132703175005,0.2189592162913634
5.928,0.19756075509523052,0.20698071533500628
5.932,0.19961669581257668,0.20273776714841318
5.936,0.20759195641465644,0.20758239752796737
5.94,0.22493134083867394,0.22208451084076675
5.944,0.25371451274469226,0.24631637759346892
5.948,0.29123277678673753,0.2772706495780122
5.952,0.3262190273639607,0.3054574689420917
5.956,0.3357305416510459,0.3118168513637607
5.96,0.2883669753533562,0.26902558893383155
5.964,0.159797906710631,0.1535075441129885
5.968,-0.04331843770132415,-0.032378551883980644
5.972,-0.26651901148551727,-0.24148746596696968
5.976,-0.4177779864055403,-0.387616767446762
5.98,-0.4089614961270722,-0.3831409710607595
5.984,-0.2039940885083369,-0.18749561239480206
5.988,0.15617562133897445,0.16380135080405656
5.992,0.5634386012073804,0.5654293427031245
5.996,0.88183039235579,0.881498206391691
6.0,1.0,1.0
6.0040000000000004,0.8758690004054799,0.8773295839889732
6.008,0.5543278359986767,0.5551667651631396
6.0120000000000005,0.14895873267722837,0.14543460880267944
6.016,-0.2037601201364858,-0.21271257329750304
6.0200000000000005,-0.3975607863745304,-0.40954481439179147
6.024,-0.39556846589068084,-0.4080730711981928
6.0280000000000005,-0.2391899443669887,-0.2513832105226753
6.032,-0.020164699072455772,-0.03137383795610915
6.0360000000000005,0.17131965296299345,0.1629569506834203
6.04,0.2876435374846764,0.2841675482033139
6.0440000000000005,0.3286145271134424,0.3299147440151249
6.048,0.3209469575056376,0.32354370551000433
6.0520000000000005,0.29509126477063297,0.29437181624140085
6.056,0.2708245414695363,0.2652461905570418
6.0600000000000005,0.2548705592660707,0.2470491351003501
6.064,0.2464338046527368,0.2404720123827917
6.0680000000000005,0.2429485587257736,0.24221404442090488
6.072,0.2423414124590504,0.24878390565390163
6.0760000000000005,0.24297122002585092,0.2567262543345086
6.08,0.24410255435977546,0.26350847227277674
6.0840000000000005,0.2469031311925558,0.268411201509718
6.088,0.2534901464677748,0.271829060404708
6.0920000000000005,0.26351461900517026,0.2741268089902502
6.096,0.2718234399503079,0.27362436440798255
6.1000000000000005,0.27053164691583187,0.265610334457018
6.104,0.2537200685177605,0.245753442985172
6.1080000000000005,0.22104745344723709,0.21442085425327417
6.112,0.17757118799453075,0.17583638079660036
6.1160000000000005,0.13036895223768297,0.13419210272408022
6.12,0.08556061773144186,0.09285650393517675
6.1240000000000006,0.047308560185448156,0.05565316053584812
6.128,0.01865143958316584,0.026332732741923603
6.132000000000001,0.0019333217104866574,0.006982044130698695
6.136,-0.0027521697767951547,-0.0023966163047350886
6.140000000000001,0.0020343894485477243,-0.0027132868930883625
6.144,0.013042253591813768,0.005560427184009287
6.148,0.02881152455642577,0.022707335209935176
6.152,0.05071223809775427,0.04844418431520636
6.156,0.08049057683644101,0.07996900353134007
6.16,0.1172227426088599,0.11312579745466222
6.164,0.1577113445262719,0.14637391831180024
6.168,0.19812907463277685,0.18138387576143478
6.172,0.23492184417398687,0.21929420942240974
6.176,0.26595388585575974,0.2582080823112003
6.18,0.29116192894490434,0.2938321486507256
6.184,0.311849672308506,0.3220884643317865
6.188,0.32955263124982737,0.3421111657109841
6.192,0.3452832246666282,0.35626582004930674
6.196,0.35892811287675297,0.36693022524210783
6.2,0.3687490193935352,0.37401084371149707
6.204,0.37209725857169795,0.375678180888414
6.208,0.36714764492153473,0.37037342289725284
6.212,0.3533836142507478,0.35724325020918446
6.216,0.3307944533035787,0.33558067141168957
6.22,0.2995458035111487,0.30500740685257766
6.224,0.2607298352618179,0.26636126088617074
6.228,0.2174990747997998,0.22281511510247243
6.232,0.17446520715281677,0.1795215131980521
6.236,0.13537300592428125,0.14049115517267152
6.24,0.10183760751901905,0.10643831175740459
6.244,0.07368891406505385,0.07656350445122095
6.248,0.049628882685163855,0.05112101527085566
6.252,0.02886827997394037,0.031000478995119707
6.256,0.013063765618486656,0.01587159447635189
6.26,0.005141326239577637,0.005059824867099216
6.264,0.006829129309473103,-0.00019160683549102053
6.268,0.01853656567566575,0.0032542159587758412
6.272,0.03991687633041008,0.01879636504410276
6.276,0.0697909841388904,0.04825992768930365
6.28,0.10567482739462464,0.09022493732296377
6.284,0.14365503168215832,0.13944082757845
6.288,0.1794976641191357,0.18791095123300594
6.292,0.20908045174646173,0.2274124109056055
6.296,0.22862811728158516,0.2524722955546759
6.3,0.23733479246673927,0.2621874277811953
6.304,0.23863197504660172,0.259956369268566
6.308,0.2371925929827714,0.2513922314580326
6.312,0.23586830338945752,0.24132547862555787
6.316,0.23519528219262575,0.23186839221557376
6.32,0.23458155529588032,0.22332572330160771
6.324,0.23348505126850783,0.21636524259479084
6.328,0.23120990635323957,0.2120287547027584
6.332,0.2266348230310682,0.21016653212209468
6.336,0.21936455193543902,0.2095141084664114
6.34,0.21083493872205583,0.20920822622186597
6.344,0.2037367145769169,0.20914253007371308
6.348,0.20017772119105381,0.20870027534846325
6.352,0.199937285607924,0.2062625376018552
6.356,0.2006468672229682,0.2005844595104853
6.36,0.19972056560873908,0.19196420257811608
6.364,0.19592163557616038,0.18205858593622737
6.368,0.1897732688023197,0.17330890119062148
6.372,0.1826408574787426,0.16829631106736254
6.376,0.17558317671312773,0.16850260407118678
6.38,0.1695813365853902,0.17362282632416504
6.384,0.1658177617057799,0.18213353078133365
6.388,0.16463051176221288,0.1910234003264979
6.392,0.1649798493327923,0.19602316770110373
6.396,0.16586953312321118,0.19461097205979816
6.4,0.168020252000604,0.18783740176582042
6.404,0.17299934982360732,0.17895807236549333
6.408,0.18015551882792824,0.17165319108110366
6.412,0.18610050190977834,0.16863115572941334
6.416,0.1878268637602043,0.1705276290222313
6.42,0.18506941006159638,0.17568947385485312
6.424,0.18033658819898357,0.18114597760791362
6.428,0.17704986046014892,0.18437598499063634
6.432,0.17640833121108912,0.1845414593393948
6.436,0.17649896167175627,0.18288378939067496
6.44,0.17502757583948036,0.18233414775039014
6.444,0.1718028292858338,0.18535567756420157
6.448,0.16857776481570763,0.19130066800100276
6.452,0.1673242287161325,0.19634576721341435
6.456,0.1685794097530371,0.19607221908627248
6.46,0.17156593412895393,0.18869614831341286
6.464,0.17587756036944846,0.17675820620061167
6.468,0.18215449914917548,0.1649295150787944
6.472,0.1904117002316026,0.1563411576636029
6.476,0.1986304512644388,0.152531731977269
6.48,0.20384851842340912,0.15511395696672348
6.484,0.20388760870134948,0.16467497512714813
6.488,0.19860893179953276,0.17868588143022102
6.492,0.1903594310078609,0.19194650225518806
6.496,0.18260974855823586,0.1991131127068262
6.5,0.17804209544455674,0.1975682442417508
6.5040000000000004,0.17707894468622154,0.18936114493701872
6.508,0.17764245368203402,0.1800066987647091
6.5120000000000005,0.17751401270826594,0.17458336690109477
6.516,0.1763706484219112,0.17472296923515263
6.5200000000000005,0.17479907708407771,0.1781236052854469
6.524,0.17339666225720962,0.18053819452144793
6.5280000000000005,0.17309319413582114,0.17963757619905785
6.532,0.1743075829106544,0.17744921515529888
6.5360000000000005,0.17600815207449205,0.17774943237760255
6.54,0.1765878227176434,0.18116335399131867
6.5440000000000005,0.17526299963330816,0.18458294075293846
6.548,0.1726771998306491,0.18543347943958444
6.5520000000000005,0.17079848538115083,0.1851366195898343
6.556,0.17197242963737325,0.1876854025855048
6.5600000000000005,0.17752968472558894,0.1948921934143466
6.564,0.1869106365853217,0.20354950044201914
6.5680000000000005,0.19764223219792454,0.2080557867143089
6.572,0.20653806350296566,0.20564557777809056
6.5760000000000005,0.21158768173635623,0.19827098674941523
6.58,0.21268785861618622,0.19060191363393542
6.5840000000000005,0.21047534599009943,0.18663430351075494
6.588,0.20507949014940885,0.186584684613053
6.5920000000000005,0.19702748742552179,0.1876373981604773
6.596,0.18870680711460808,0.1879119803489364
6.6000000000000005,0.18337192051495377,0.18826983214881232
6.604,0.18296451244950673,0.1907223467901018
6.6080000000000005,0.1868999854441722,0.19515658076929743
6.612,0.19178957711349787,0.19790170751668645
6.6160000000000005,0.1930630128664803,0.1951652722006476
6.62,0.18848809893344498,0.18718748042644373
6.6240000000000006,0.18003680559842095,0.17808004550488765
6.628,0.17182552194977352,0.17269682530192543
6.632000000000001,0.16690836000774345,0.17387845692818127
6.636,0.16661449961633967,0.18137426383670197
6.640000000000001,0.17139642453960469,0.19232564056189183
6.644,0.18035873382732093,0.20273949996488638
6.648000000000001,0.19056014542196698,0.20851327068910974
6.652,0.19771495547604911,0.20567411349096032
6.656000000000001,0.1967986664022936,0.19108949170464973
6.66,0.18271510565293414,0.16385758155978492
6.664,0.15395964358090608,0.12713949170062455
6.668,0.11678965970605049,0.08909393422610767
6.672,0.08324904603866345,0.0606030428188753
6.676,0.06469125061891123,0.0507073575413477
6.68,0.06768720042616327,0.06383609681672775
6.684,0.09355170672143087,0.09975008066783397
6.688,0.13921498828755818,0.15296924092000963
6.692,0.19801879931292588,0.21292868704834067
6.696,0.2597786123523711,0.26797909415035326
6.7,0.3112106407183799,0.309352960074716
6.704,0.3397096486031004,0.33201087177735644
6.708,0.33934030044931274,0.33449666023690816
6.712,0.3125118491984127,0.3177775051375036
6.716,0.2665426943308067,0.2835622475909736
6.72,0.21082326792220685,0.23532629922634052
6.724,0.15534498085353587,0.18043679309070537
6.728,0.10864722861963139,0.12913126593159174
6.732,0.0768545786142889,0.09113201275853822
6.736,0.06429654757564185,0.07291131989885047
6.74,0.07320037357631781,0.07640178165870948
6.744,0.10177469878640788,0.09872932014986668
6.748,0.14284800871901382,0.1327980188935196
6.752,0.18528505133960294,0.16883982769304517
6.756,0.21854180500985243,0.19723121547941735
6.76,0.23731439983970382,0.21265124966873916
6.764,0.24272587697417558,0.21700968504821616
6.768,0.24010715937829796,0.21737794105649
6.772,0.23475718838886683,0.21977860999159748
6.776,0.2283768271926816,0.2247083740813618
6.78,0.22013479165941963,0.22887111995030818
6.784,0.21112276576190414,0.22989984140713293
6.788,0.20626463539238404,0.22830301587435287
6.792,0.21139646048158878,0.2269056527608635
6.796,0.22917425987099227,0.23004539934776913
6.8,0.25760944556393195,0.24225065734579254
6.804,0.29059931043936893,0.2652480921071301
6.808,0.3176259720030612,0.2929220851258032
6.812,0.32176149108910845,0.30721091519053223
6.816,0.2799594522343365,0.2801897018835908
6.82,0.17145887129912674,0.18556469260613428
6.824,-0.005458304982303486,0.01828317021278636
6.828,-0.21558771652095343,-0.18687645676465137
6.832,-0.38394555801673147,-0.3542576876289597
6.836,-0.42276170476596964,-0.3948882000324857
6.84,-0.2777142453867566,-0.25234264766563896
6.844,0.03721137419746112,0.060381926206238834
6.848,0.4362179231027099,0.45507949147278937
6.852,0.7897568925888832,0.7990265951899871
6.856,0.9738151801891033,0.9694422964522078
6.86,0.9217385534929374,0.9042169823153456
6.864,0.6533609304599577,0.6260716614788497
6.868,0.26566371019539403,0.23360848219812236
6.872,-0.10817755436622434,-0.13753675876025195
6.876,-0.3506725235489244,-0.36910947662074534
6.88,-0.4033290991515741,-0.4060917484964308
6.884,-0.28611484144072463,-0.27417761479639013
6.888,-0.08060166719932893,-0.059297069025652016
6.892,0.11930795549150974,0.14312024202505325
6.896,0.2550513743272014,0.27494908175978905
6.9,0.31609936012457207,0.32698465032948576
6.904,0.32314159733089776,0.3219036568429665
6.908,0.3057311132939651,0.29221129093122844
6.912,0.28624263627448654,0.26398892656224526
6.916,0.2739012797980769,0.24904605019337156
6.92,0.26825364618526715,0.24714802509880962
6.924,0.26542342293433596,0.25340584899597807
6.928,0.2626170761391673,0.2629409961819691
6.932,0.2599659394458911,0.271655999400525
6.936,0.25848209616208817,0.2759207177385976
6.94,0.25745022121587735,0.27351197845372477
6.944,0.25561701746916876,0.26583102740725284
6.948,0.25265057430995275,0.257258112127178
6.952,0.24737256249969475,0.2503922965369294
6.956,0.23660834309587542,0.24307842364529653
6.96,0.2178635615597051,0.23059709813360096
6.964,0.1925091588902994,0.20961159149377795
6.968,0.16502248637432615,0.1803737656602742
6.972,0.13900477751476514,0.14640418329027183
6.976,0.1147396246423884,0.11246052229903292
6.98,0.0910704652012404,0.08212121105143955
6.984,0.06833876701811636,0.056571035818588244
6.988,0.04806512592958101,0.03578790234829965
6.992,0.03130575905228361,0.02012618835605484
6.996,0.01946201998191488,0.009809342415838529
7.0,0.015390816733658053,0.004912021099640285
7.0040000000000004,0.02187589947205404,0.007610770541820688
7.008,0.039557635780058,0.02176683185825068
7.0120000000000005,0.0663188021106651,0.04861306967074985
7.016,0.0981380456051304,0.08516404859751425
7.0200000000000005,0.13146734317029218,0.12632354285321457
7.024,0.1652924967925813,0.1669862828535651
7.0280000000000005,0.20018320363245,0.20477500268319604
7.032,0.2354715452592333,0.24096677327546345
7.0360000000000005,0.26848960578520864,0.27683140894058345
7.04,0.29663160687946855,0.3110100257043644
7.0440000000000005,0.3189211200847153,0.3409639169818661
7.048,0.33580098100392575,0.3644108095273735
7.0520000000000005,0.34905512900696234,0.3794821771983059
7.056,0.360557922509797,0.3853202687811177
7.0600000000000005,0.3688435307689062,0.38264621026238754
7.064,0.3688101532073069,0.3730512712074099
7.0680000000000005,0.3566096264825396,0.3575821004896065
7.072,0.33284203777285537,0.3364087918141683
7.0760000000000005,0.3005693467354096,0.3096027576674969
7.08,0.26329491527740023,0.27740215839342963
7.0840000000000005,0.22477578578443502,0.2401768360276082
7.088,0.18758394429695224,0.19917824929975936
7.0920000000000005,0.15193939825349778,0.1572922429905328
7.096,0.11750604669441844,0.11814484931834923
7.1000000000000005,0.08576440029188825,0.0839386701126612
7.104,0.059861599442974756,0.05487421325740982
7.1080000000000005,0.04170917380671524,0.03095536826305323
7.112,0.029905852605562888,0.013145395198322696
7.1160000000000005,0.022311450063732474,0.0025693638212465064
7.12,0.019932774571903122,-0.00010738940667542884
7.1240000000000006,0.026179728274828618,0.005632336010984451
7.128,0.043016302724751654,0.02011877842380705
7.132000000000001,0.06984610032547423,0.04318417676130282
7.136,0.10524041252279326,0.07470751304764045
7.140000000000001,0.14672362572514408,0.11474422871991874
7.144,0.18854527706714186,0.16114078359934902
7.148000000000001,0.2225726664784753,0.20744679728902926
7.152,0.2430354678622597,0.2450555420748124
7.156000000000001,0.2496013300335056,0.2675340652203648
7.16,0.24558693307042456,0.27351365292324803
7.164000000000001,0.234775427691579,0.2665295329601036
7.168,0.22111246598127932,0.25195589875742996
7.172,0.20927995686220657,0.23434129640710877
7.176,0.20292863191915944,0.21707218129474093
7.18,0.20276529786295971,0.20279593161916365
7.184,0.20694660613545013,0.19406487307346687
7.188,0.21261638795649485,0.1935589607943191
7.192,0.21663363222294407,0.20203639664223383
7.196,0.21601028065748795,0.21583962305928606
7.2,0.20966830695901284,0.22803680827017758
7.204,0.19997012236483958,0.23264906121230888
7.208,0.191453683351136,0.2277285525247017
7.212,0.18750656755164452,0.21532354944250653
7.216,0.1880528641644421,0.1995701929353535
7.22,0.1901703411744775,0.18481623235710232
7.224,0.19064842002004534,0.17457234120426324
7.228,0.18810696546865158,0.17052492164598498
7.232,0.18319699090075425,0.17157887155768092
7.236,0.17731328253664924,0.17467004433900435
7.24,0.1716264983772562,0.17751630851509126
7.244,0.16735442896511588,0.1804149842817777
7.248,0.16581227557924239,0.18454166972931607
7.252,0.16728883395729488,0.18871140878677028
7.256,0.17060157700419687,0.18938270037176275
7.26,0.17438667995005885,0.18441456133849732
7.264,0.1783030533000065,0.17551253169200431
7.268,0.18275904946774912,0.16617396206476664
7.272,0.1880016406877012,0.1588341121045167
7.276,0.19349637655524599,0.15488779778394246
7.28,0.19797342281706531,0.15509448740125498
7.284,0.2003384789363103,0.15920450541930986
7.288,0.19986719583277357,0.1665058464783149
7.292,0.1953372696954454,0.1760270559381889
7.296,0.18568733507691193,0.18596281054486186
7.3,0.1718901074581034,0.19411017193658364
7.304,0.1577794739799825,0.19893331063814368
7.308,0.1494338936960029,0.19997776364826492
7.312,0.15220162606353593,0.19801244800176931
7.316,0.16597803830630187,0.19500729874174372
7.32,0.18406892135031483,0.193037322321574
7.324,0.1977400605645303,0.19268471971638346
7.328,0.20103688968133504,0.19258518718049666
7.332,0.19319953351929264,0.19079039891430782
7.336,0.17946178223803466,0.18711007300758986
7.34,0.16825412958708563,0.18355705987487436
7.344,0.16538313121425086,0.1816511489580228
7.348,0.17053404974370912,0.18051708687249213
7.352,0.17942537022679872,0.17813179228697607
7.356,0.18825571749205583,0.1731588864000948
7.36,0.19513513190119447,0.1660799739962302
7.364,0.1986498105713177,0.15985189342869255
7.368,0.19716017800836383,0.15894861896103696
7.372,0.19020191911926454,0.1661245003561509
7.376,0.180066116028057,0.17971854482374439
7.38,0.17091544292569183,0.1947722175970099
7.384,0.16575865121980926,0.20580967829654329
7.388,0.1649088362058475,0.2087585447893241
7.392,0.1671946769272099,0.20319760362333228
7.396,0.17142927768357175,0.1929294299100015
7.4,0.17702162034407798,0.18286841386001207
7.404,0.18390736725564105,0.1762503386475487
7.408,0.19143076378416746,0.17412247026497685
7.412,0.19705163291300054,0.17547904063574693
7.416,0.19724960221504295,0.1778957369932681
7.42,0.19092547028737017,0.17876380521548807
7.424,0.18156405427948474,0.17702628089253847
7.428,0.1750385351935131,0.17379022268966327
7.432,0.17494199159209156,0.1709599742555572
7.436,0.18039709166595186,0.17048127502161847
7.44,0.1884596339253073,0.17419822654153005
7.444,0.1972923889052225,0.18258491510595798
7.448,0.2061647453426152,0.1934660879100405
7.452,0.21383345813578436,0.2025413799483542
7.456,0.21818633854092884,0.20623873137256532
7.46,0.21680000671859934,0.20415685936517924
7.464,0.20798402252390358,0.19844937405648744
7.468,0.19322277390586184,0.19228606816404126
7.472,0.17814970175853695,0.18873425800019272
7.476,0.16911572119655238,0.18912990425916898
7.48,0.16898183685553336,0.1924463279021198
7.484,0.17557324809873798,0.1962672572096138
7.488,0.18338904250628496,0.19784898178013366
7.492,0.18795156994896245,0.19591328726181656
7.496,0.18838260023999664,0.19255889551507344
7.5,0.18598901041686644,0.1917922472204716
7.5040000000000004,0.18181588321758269,0.19502001774219457
7.508,0.17529310594387093,0.19847550566252314
7.5120000000000005,0.16392813159876019,0.19548617051601047
7.516,0.14455760182746014,0.18076769150134275
7.5200000000000005,0.11694692227079151,0.15335357380427883
7.524,0.08662412180227008,0.11781505114544055
7.5280000000000005,0.06303827836672315,0.08300615557772928
7.532,0.054985425411328004,0.058810032520417055
7.5360000000000005,0.06750884677125324,0.05341766246622526
7.54,0.10125850724876395,0.07173154107334345
7.5440000000000005,0.15247836138910786,0.1140920336439859
7.548,0.21298230704192744,0.17484971708893493
7.5520000000000005,0.2720732474259704,0.2422509198874745
7.556,0.3202258301052636,0.3016516162405478
7.5600000000000005,0.35129652295868175,0.34078786672320716
7.564,0.361771310873795,0.35372957735433497
7.5680000000000005,0.3496263794133023,0.3412372612021153
7.572,0.31570040950550426,0.30797488761948744
7.5760000000000005,0.2654109290157258,0.25971991039920184
7.58,0.2074388763383308,0.20323571586636913
7.5840000000000005,0.1509766470522813,0.14696291761468738
7.588,0.1039193120555233,0.09970764142889843
7.5920000000000005,0.07208676193273567,0.06836442255227948
7.596,0.059564022366632496,0.056855254195417704
7.6000000000000005,0.06836020977317236,0.06626066901586225
7.604,0.09562700582047712,0.09393163418242478
7.6080000000000005,0.1322048521915542,0.1322614649597238
7.612,0.16669754915450508,0.1707001534274799
7.6160000000000005,0.19211768173347576,0.20027343586033242
7.62,0.20842779587143512,0.21682028578630663
7.6240000000000006,0.21923296891405286,0.22136389288880687
7.628,0.22688654331935454,0.21845946361014823
7.632000000000001,0.2303957001258028,0.21387774687888905
7.636,0.2275232510402927,0.21266737738816732
7.640000000000001,0.21902676594638604,0.2177078720678638
7.644,0.21012645237204763,0.22790947556151875
7.648000000000001,0.20711545490708994,0.23844425439327965
7.652,0.21369893341752544,0.2463552068486652
7.656000000000001,0.23086229676717562,0.2557075988631521
7.66,0.25771325676430434,0.2735723949883342
7.664000000000001,0.2896068377160028,0.30045326347349977
7.668,0.3135026738890425,0.3242722120012371
7.672000000000001,0.3055955234556822,0.3204949604078122
7.676,0.2374484011928628,0.2591051805024107
7.68,0.09168651291129892,0.12007921009133926
7.684,-0.11564731759596869,-0.08388229447295958
7.688,-0.3188132300897222,-0.2903592445986757
7.692,-0.4187189713329784,-0.4025814429142901
7.696,-0.3362824714039916,-0.34026141516464303
7.7,-0.06320059156716207,-0.088256487951065
7.704,0.3269916851952215,0.28861882305220377
7.708,0.7074477424433634,0.6674143925484202
7.712,0.9473609670545313,0.915015161368899
7.716,0.9628360829011766,0.942178915410385
7.72,0.7502760279930687,0.7396701560612073
7.724,0.3870682553393665,0.38125159595614755
7.728,-0.0008904794400651506,-0.007251260581724761
7.732,-0.2893009794013912,-0.2988368232259684
7.736,-0.4023853203864495,-0.41407951586896974
7.74,-0.33769716642322023,-0.34825076492627427
7.744,-0.15745285748477655,-0.16461029045029174
7.748,0.049718951548565204,0.04520209943638309
7.752,0.21361890070004863,0.20929996738681678
7.756,0.3057196754285292,0.2996272285123083
7.76,0.3336126667717261,0.3254405419563491
7.764,0.32169738610017484,0.31362219506672195
7.768,0.2940296545660148,0.29026368648955825
7.772,0.2662747165624795,0.2703706920829039
7.776,0.24617015844945977,0.2582024874672124
7.78,0.23666592498871375,0.2530299092452788
7.784,0.23718217953587262,0.25255570766364
7.788,0.24364744010125072,0.2530301971519311
7.792,0.2497732235366561,0.25102987701217616
7.796,0.2510406317285041,0.24742742076474622
7.8,0.24840602232705988,0.24767294783042848
7.804,0.24643733781728328,0.2568671879764277
7.808,0.24794789631181802,0.27423614840484034
7.812,0.25106892427727345,0.2911634724981931
7.816,0.25001691762138023,0.2947870800769814
7.82,0.238815403554425,0.2760495607443407
7.824,0.21527268700541446,0.23620270790415265
7.828,0.18095946982221722,0.18492750395822255
7.832,0.13889104063261026,0.13216599651251948
7.836,0.09319142017899362,0.08287840874592267
7.84,0.049849359544913874,0.03861948794731118
7.844,0.01593930942201016,0.0020621482110789735
7.848,-0.002960786052709885,-0.02186452622317825
7.852,-0.005724772718089133,-0.029846237230389927
7.856,0.0036672976766680687,-0.02277366139912551
7.86,0.019822118868943583,-0.0033518450951047774
7.864,0.040170938508050646,0.026200586220416655
7.868,0.06455138878349387,0.06335226091039137
7.872,0.0929589537566804,0.10432094169151096
7.876,0.12501738466505619,0.1446569648778271
7.88,0.15965129106588538,0.18074690397362536
7.884,0.19526505378494852,0.21111590079686438
7.888,0.2311837437284534,0.2367609546660454
7.892,0.2676258769352098,0.2606353271249513
7.896,0.3033290855256521,0.28587223130468575
7.9,0.3350148845794003,0.3130325437835231
7.904,0.3602372631999322,0.3389382186698622
7.908,0.37799116256871734,0.3589956668217915
7.912,0.3862512838621037,0.37035641702560285
7.916,0.3830114485729095,0.37234051626715714
7.92,0.3694728579308566,0.36546279562556405
7.924,0.3489485188872641,0.35117403979979867
7.928,0.3231985239990558,0.3311893810722688
7.932,0.29198408113705754,0.3060927552414885
7.936,0.2561853753945138,0.2756028689597114
7.94,0.21888009774055006,0.24078857762478734
7.944,0.18265431699719126,0.20480048248972338
7.948,0.14815227528358865,0.17088264872351977
7.952,0.11531075656378786,0.14004191742385408
7.956,0.08475978129421602,0.11088565904267877
7.96,0.058662945658005894,0.08209484259544397
7.964,0.0399240323725345,0.054663234638977265
7.968,0.029456490650326073,0.03138724718715169
7.972,0.025092571173691125,0.014809212495861646
7.976,0.024219790015548748,0.006052324958352173
7.98,0.026732312447652395,0.00565082488298474
7.984,0.035022135074251004,0.015053647853660479
7.988,0.05222179352789702,0.03642122109387702
7.992,0.080502683838936,0.07061692681714282
7.996,0.11899470802800782,0.11510572547694786
8.0,0.1623893990382621,0.1632697222872419
8.004,0.20274325057243403,0.20607470220704438
8.008000000000001,0.2329725024230107,0.2354057781954213
8.012,0.2491672813650434,0.2476532872712529
8.016,0.2519108370374039,0.24591959988280876
8.02,0.24622786322770374,0.23801751384899994
8.024000000000001,0.23898117505754946,0.2307035990319346
8.028,0.23478965154195763,0.22613208985891498
8.032,0.23342343458970238,0.2231852260299041
8.036,0.23129836495429812,0.22003047566166356
8.040000000000001,0.22581421633653997,0.21600834298751392
8.044,0.2179518539166334,0.21248065181736742
8.048,0.21086886893777446,0.2114133813038912
8.052,0.20685825701665395,0.2133987670243116
8.056000000000001,0.20583000922535843,0.21745155285515305
8.06,0.20589677937455564,0.22173530570439626
8.064,0.20508670224219006,0.2240736744576839
8.068,0.20276888601306453,0.2226634750184735
8.072000000000001,0.19955077958906453,0.21679703836135888
8.076,0.19580941611705005,0.20681698264894077
8.08,0.1906583714550001,0.19401462215364607
8.084,0.18344997826218457,0.18136567905969314
8.088000000000001,0.1758933533470679,0.1730122056892287
8.092,0.17072363475785757,0.17146522994685243
8.096,0.1687822740482685,0.17606241394052446
8.1,0.16860805919211774,0.18366932543022618
8.104000000000001,0.16805941138036173,0.18998903785902588
8.108,0.16589943008347885,0.1913741188229483
8.112,0.1625401148644703,0.18605751845759766
8.116,0.1599300546582456,0.17472246155789062
8.120000000000001,0.16057565407164698,0.16095525770968155
8.124,0.16608005772280898,0.14965934668704506
8.128,0.17597667799490502,0.14408401023843198
8.132,0.18713521603966154,0.14524999558580975
8.136000000000001,0.19489132787855334,0.15290317597984227
8.14,0.1960944690275248,0.1648381983572449
8.144,0.19100150981318986,0.1768111086768518
8.148,0.18265960793023384,0.18499051352173534
8.152000000000001,0.17523484302025527,0.1879585498522558
8.156,0.17185996399032444,0.18662130932274557
8.16,0.17301450795794526,0.18340653570137633
8.164,0.17658719707539539,0.18114884998344838
8.168000000000001,0.17921534550234375,0.1812958553244577
8.172,0.1784157420882302,0.1831170759794727
8.176,0.17442667013681645,0.1849938583190469
8.18,0.17026690487691054,0.18574871353996691
8.184000000000001,0.1698988629217768,0.18488265454744646
8.188,0.17542681328479715,0.1824281276790949
8.192,0.185363385686377,0.17881516416156296
8.196,0.19576638876928665,0.1754088561719711
8.2,0.20252086358815702,0.17503181081348496
8.204,0.2027367231377053,0.18032622107146046
8.208,0.19660805337434262,0.19055621055244432
8.212,0.1883180859277358,0.20101253282378662
8.216,0.1830073807593231,0.20699217282939242
8.22,0.183063512709698,0.20720235666288778
8.224,0.18702766493194356,0.2027674791704599
8.228,0.19039832090151765,0.19547488086063258
8.232,0.18881940691352117,0.1873880165153623
8.236,0.1823396617231976,0.18061738860661936
8.24,0.17561697070337434,0.17724129989211201
8.244,0.17304219690639178,0.17876699432006826
8.248,0.17474755064816416,0.18447223799006096
8.252,0.17786504149292992,0.19071529004548538
8.256,0.17981273849099555,0.19318103084535965
8.26,0.17961773339403342,0.19017993930194632
8.264,0.17792221330736657,0.183513643548729
8.268,0.1762808125411912,0.17648135586102986
8.272,0.17580231400730262,0.1715303998178037
8.276,0.1768274066966382,0.1693681419089479
8.28,0.17944554301637883,0.1695453885465399
8.284,0.1831695606526147,0.17127967181755244
8.288,0.18652294164116734,0.17360132027497643
8.292,0.18785885134861524,0.1756693514134724
8.296,0.18643225063812463,0.17752283229347787
8.3,0.18225672138962246,0.1802667010252288
8.304,0.175593793905632,0.1851128221674334
8.308,0.16772132210753776,0.19190791148082553
8.312,0.16178139818004822,0.1989445469259703
8.316,0.16180154966088423,0.20367475802532686
8.32,0.17057985695493771,0.2034582879162461
8.324,0.18788330692379462,0.1975773292827956
8.328,0.20967881240058306,0.188736115638533
8.332,0.2291196254194019,0.18133053191823056
8.336,0.23975994031380377,0.17824208094252736
8.34,0.23858752416992557,0.17908114813356169
8.344,0.22648027148794392,0.18129866973240127
8.348,0.20811841251082464,0.18336304463969433
8.352,0.19147647162753323,0.1864335718112664
8.356,0.18391396953079742,0.19242138404706144
8.36,0.18671760433933504,0.2009938166755949
8.364,0.19360968069760265,0.2084866907188414
8.368,0.1947275308702101,0.20858623146631672
8.372,0.18219696301534638,0.19487329503499273
8.376,0.1539892843367776,0.16553905044506223
8.38,0.1152796682551207,0.12631294380368474
8.384,0.07644204790782427,0.08790859142745
8.388,0.0489742904687438,0.061398042329317226
8.392,0.04212228426751641,0.05563830674525061
8.396,0.06036034392531775,0.07540390011198972
8.4,0.10162720397666036,0.11891724560547234
8.404,0.15757024427926192,0.17742315307927004
8.408,0.21660105569310684,0.23877623004508286
8.412,0.2686818998755107,0.29206351792618945
8.416,0.3079510282454778,0.3297697668548305
8.42,0.3309981262132755,0.34769157786899463
8.424,0.3346489751421182,0.3438562184820779
8.428,0.31700047374220275,0.31785284687770377
8.432,0.2796747042312935,0.27203545546333197
8.436,0.22873206821332825,0.21285703748944562
8.44,0.17401176745319735,0.14968650939534323
8.444,0.12634227817773946,0.09271379816452674
8.448,0.09364095794726746,0.05197731040692943
8.452,0.07893815573323693,0.036038926468280996
8.456,0.08117029073011905,0.048681242420685056
8.46,0.0969667157095182,0.08531513977837157
8.464,0.1219503508173847,0.1335445934069972
8.468,0.1510112623369957,0.1792406491470051
8.472,0.1784267251966749,0.21318898632551275
8.476,0.19983683333681146,0.23305218659124005
8.48,0.21446627456853373,0.2408851716989162
8.484,0.22382007654775338,0.23998207166760732
8.488,0.22879496426106072,0.2336461792240796
8.492,0.22925833072412005,0.225525279873815
8.496,0.22554715902910072,0.21937440028374078
8.5,0.22020471749179626,0.21785390035123253
8.504,0.21824225919317986,0.22195209355901335
8.508000000000001,0.22477806936685996,0.23139168179026148
8.512,0.24293377409494799,0.24570106976052553
8.516,0.2729570392671592,0.26517816321871246
8.52,0.3095611095465365,0.28912053875872323
8.524000000000001,0.3384455622782434,0.31015183663756773
8.528,0.3363112640271524,0.30897671483996136
8.532,0.2765052390806697,0.2570529559671584
8.536,0.14071730776235758,0.13134682080749926
8.540000000000001,-0.06233172115835517,-0.062137175563894864
8.544,-0.2792986269166372,-0.2701252540171035
8.548,-0.4192732198142064,-0.4019199108237559
8.552,-0.39541096837147016,-0.3729081699421152
8.556000000000001,-0.1755819128630678,-0.15310650034382944
8.56,0.1921556316285904,0.21049241357793158
8.564,0.5929083064249214,0.6059536972325374
8.568,0.8890487829696627,0.8978006383612753
8.572000000000001,0.9755475890057763,0.9822497857530796
8.576,0.8232056887401509,0.8300337566496507
8.58,0.48966057192039236,0.4970439852553261
8.584,0.09346107718774888,0.10040997892782078
8.588000000000001,-0.23410548828127775,-0.22899180398744134
8.592,-0.3984247504409626,-0.39720671378670347
8.596,-0.3751038028632049,-0.3797092469800236
8.6,-0.2129112741741056,-0.2226732552332764
8.604000000000001,-0.0011478953343886378,-0.011942138334718577
8.608,0.17949506080053523,0.17268168436913633
8.612,0.28940460899565656,0.2889211944456531
8.616,0.33018200500082107,0.33489107470292456
8.620000000000001,0.32539611257581624,0.33252327735914866
8.624,0.30146087451236747,0.3081551003822478
8.628,0.2766079038755027,0.2802506173787753
8.632,0.2581169248157815,0.2567009017551567
8.636000000000001,0.24605331522063056,0.23903518257910616
8.64,0.23889936049861826,0.22757653865862104
8.644,0.23627281726974725,0.22297577081664754
8.648,0.23833056342100156,0.2251024674807336
8.652000000000001,0.24409274408787662,0.2322292397872514
8.656,0.2512730113752979,0.24164705820345156
8.66,0.2584026035270297,0.25141986368022806
8.664,0.2657306672443671,0.26072833804474294
8.668000000000001,0.2723212309649974,0.2676033176934469
8.672,0.2732851761035269,0.26770058677640063
8.676,0.2620090985259136,0.2565932615165336
8.68,0.23545142715415857,0.23232776568623992
8.684000000000001,0.19622894677920089,0.1960881334878548
8.688,0.14988319820638485,0.1526086269526974
8.692,0.10181861710054307,0.10893913733002791
8.696,0.05683397609450713,0.0711321345234115
8.700000000000001,0.019713902235060532,0.04264897272121382
8.704,-0.005019085910078491,0.024304943903071585
8.708,-0.014588830091207372,0.014271113933556068
8.712,-0.00983601657757538,0.009999336219282506
8.716,0.00525980115180813,0.011013985215231337
8.72,0.026635317324841257,0.019212539297002618
8.724,0.0517907157802282,0.03686449704636008
8.728,0.07953470447676803,0.06439772076209827
8.732,0.10983289423268583,0.09947390933126266
8.736,0.14280029230791702,0.13815432728544952
8.74,0.1770981616679692,0.1769830967368491
8.744,0.2100511846300046,0.2140252775425504
8.748,0.23935718745031132,0.24878842632000775
8.752,0.2649575688214312,0.2815803847105054
8.756,0.2898806707662076,0.3122428651690634
8.76,0.3179596778460243,0.33937285151651286
8.764,0.34942886596856493,0.36101593916970276
8.768,0.37924367122874036,0.37559891404077983
8.772,0.3992816628709428,0.38222217351288035
8.776,0.4024187547863176,0.3807461722244878
8.78,0.3870863222471228,0.37194465508485397
8.784,0.35824766746363745,0.35692216344033967
8.788,0.32283241691015774,0.33545132296083313
8.792,0.285651748921824,0.3058469928418437
8.796,0.2495606688542431,0.2675383309458981
8.8,0.2161592893764157,0.22338463321760704
8.804,0.18504094500993862,0.17875994977877507
8.808,0.15404604099416686,0.13807854410151998
8.812,0.1217579624402938,0.10283131269933321
8.816,0.08990609342898548,0.07262202118462913
8.82,0.06286005229266478,0.04713745483457399
8.824,0.04432614757365916,0.027184176866804632
8.828,0.03461544767428992,0.013821945351535359
8.832,0.03126009116910966,0.007532805379606877
8.836,0.031559342048681494,0.009504872741571635
8.84,0.03457656394471731,0.02204020104394444
8.844,0.041400692811430995,0.045812373443268495
8.848,0.05383099101892408,0.07770522874791408
8.852,0.07377943281946542,0.11264398621260252
8.856,0.10314638979821456,0.14677568620408787
8.86,0.1410913227329076,0.17773026096453082
8.864,0.18107623790001837,0.2030647583691345
8.868,0.21380395692466658,0.22102435826736833
8.872,0.23389351939689784,0.23260455896737997
8.876,0.24165571839646827,0.23997200368226634
8.88,0.2399357112951508,0.24300183200255265
8.884,0.23271619072151184,0.24027762614311943
8.888,0.22540496483051964,0.23254071511534202
8.892,0.22286558445588955,0.22240191171831625
8.896,0.22613473181662713,0.21239654055126267
8.9,0.23173072945433937,0.20523997531603055
8.904,0.23480652306170846,0.20330005549755015
8.908,0.23292635574281761,0.2065415248603646
8.912,0.2266892088657655,0.21262314564090223
8.916,0.2180551555309307,0.2181899292718752
8.92,0.20908206800411677,0.21939486691585963
8.924,0.2008251463083699,0.21387761134123662
8.928,0.1926063892772023,0.2033978952070492
8.932,0.18351712655596963,0.192685275049141
8.936,0.17489420060988747,0.1854397388547122
8.94,0.17005006485361718,0.18200462431395437
8.944,0.17129979907861737,0.18031110152113738
8.948,0.17817491573764843,0.17883499916994783
8.952,0.18777289372907524,0.17822718927304382
8.956,0.19581809984087428,0.17988163654243605
8.96,0.19847247643149202,0.1836168494030226
8.964,0.1938277226374765,0.18712618711835516
8.968,0.18226354155761837,0.1880581288574168
8.972,0.16687577898465156,0.18622602920510567
8.976,0.153068393498778,0.18301021548772933
8.98,0.14632449036505135,0.18016580314536523
8.984,0.14964073132055922,0.17986490104297426
8.988,0.16200802186658914,0.1831838124070151
8.992,0.17886789410377157,0.18806235713448216
8.996,0.19388215140451726,0.19048753950695607
9.0,0.2013235728353986,0.18739290404080022
9.004,0.19923548789279977,0.178165182551687
9.008000000000001,0.19041404712903476,0.1644204316317628
9.012,0.1795674503697826,0.14991755056209644
9.016,0.17011600676189564,0.1407566453668383
9.02,0.16362412588876651,0.14250827446958203
9.024000000000001,0.16121277030231496,0.15547513942277824
9.028,0.16386562647137115,0.17397024365680758
9.032,0.17117549583070923,0.19024553121432475
9.036,0.1815273642749624,0.1991014225890093
9.040000000000001,0.19319369517903695,0.20033352348881128
9.044,0.20405594638527869,0.19764002357050092
9.048,0.21112573015038505,0.19481737944864252
9.052,0.211688819501187,0.19343831272233092
9.056000000000001,0.20564169564660095,0.19366397029873306
9.06,0.19600939136355144,0.19477361307048424
9.064,0.18648070958340357,0.1952888751342372
9.068,0.17931818384819764,0.19420697414640964
9.072000000000001,0.17528435336896497,0.19128941958265244
9.076,0.17396398786867917,0.18649910634912326
9.08,0.1741122087459448,0.1802658603638605
9.084,0.1746284596208234,0.1736941717750633
9.088000000000001,0.17570275773589072,0.16815707781680467
9.092,0.1784719234082468,0.1653232896409309
9.096,0.18253426902949688,0.1670630229403829
9.1,0.1846880915350364,0.17385621658147143
9.104000000000001,0.18152848795328436,0.18290472943230207
9.108,0.17257164767976452,0.18874569848680678
9.112,0.16041623844663633,0.18744694771557446
9.116,0.1495146394155058,0.18059368166197354
9.120000000000001,0.14508284934737925,0.17389686948289906
9.124,0.1504235068050861,0.17198849320558596
9.128,0.16380182225998308,0.17540293497821335
9.132,0.17926596911023673,0.18176512212490126
9.136000000000001,0.19140117262169798,0.18840171202137057
9.14,0.19872508562629254,0.19353013431937316
9.144,0.20215548562314312,0.19621029028356274
9.148,0.20210164470660597,0.19638871393080604
9.152000000000001,0.19885407763336005,0.19487731730065216
9.156,0.19386241582373054,0.1928247918145949
9.16,0.1890450469619771,0.19116677091320589
9.164,0.18624635994069472,0.19039909256072152
9.168000000000001,0.18718994604481143,0.1905492960410795
9.172,0.1924727248895124,0.19149915198229284
9.176,0.2006822874530756,0.19335651347272687
9.18,0.2088365168309727,0.19618471440679208
9.184000000000001,0.21361688701012405,0.19932588238696947
9.188,0.2125857895739034,0.20123652709755468
9.192,0.20527023516033216,0.2001343685224879
9.196,0.1937810562448956,0.19502960021926063
9.200000000000001,0.18225979137460468,0.18702594411294293
9.204,0.1753885767346035,0.1791184333493845
9.208,0.17613654245968036,0.17375338620067504
9.212,0.1835670953729034,0.1722423568767113
9.216000000000001,0.1933477517499127,0.1755574323059932
9.22,0.2004696456449313,0.18253850407703065
9.224,0.20041019444341535,0.18837155113356396
9.228,0.18895849659676167,0.18623974767025997
9.232,0.16410309724012828,0.1704254331576689
9.236,0.1290311960117907,0.13984184303023683
9.24,0.09201942600887314,0.10174528916376135
9.244,0.06312322985460894,0.07148770214998201
9.248,0.051035025556905866,0.06433357259007844
9.252,0.0616305423664405,0.08556406037101394
9.256,0.09695076155033622,0.12862281598951575
9.26,0.15296172958410192,0.18137728731816227
9.264,0.21820174150528793,0.2328881076606537
9.268,0.27762734692129554,0.2758758088142226
9.272,0.3196300123377598,0.30642497549841297
9.276,0.3394564389634731,0.3227374334258042
9.28,0.3376148230356122,0.32295023921704336
9.284,0.31645757287766174,0.3046210065254842
9.288,0.27806418896850404,0.2680419617196552
9.292,0.2258289887993623,0.21899209431012556
9.296,0.16725604877964972,0.1666655611129806
9.3,0.11310967676227057,0.11970078148805885
9.304,0.07353827941652114,0.08405201670549767
9.308,0.0548775817707845,0.06354572204721531
9.312,0.059171636757682444,0.06176449401127915
9.316,0.08482182065743915,0.08092225480514226
9.32,0.12536840941111738,0.1174793099387863
9.324,0.16911687091284455,0.16088999839876217
9.328,0.2043195067187995,0.19889600089055137
9.332,0.22606072105163855,0.2246675861344516
9.336,0.23662390272925715,0.23811182582454737
9.34,0.2396262352930465,0.24173349062637373
9.344,0.23639669303823885,0.2384392631519785
9.348,0.2277722471381749,0.23169272660682916
9.352,0.21640234935775582,0.2241499824181934
9.356,0.20643164525216906,0.2171853688147758
9.36,0.20186287616357013,0.21315307386432414
9.364,0.20586224562338828,0.2156983340804679
9.368,0.2207726081453194,0.2268279955160193
9.372,0.24699394759331406,0.2462813525356491
9.376,0.2810446943436702,0.27296242815053917
9.38,0.3135132967165204,0.30128224572337614
9.384,0.3265722473472077,0.3142500222060767
9.388,0.2937247990054628,0.2839829486786636
9.392,0.1889222738342049,0.18409783389315826
9.396,0.007923495371461309,0.010447192020056839
9.4,-0.20926534541244945,-0.19922444042791143
9.404,-0.37791738794589547,-0.3646116247890725
9.408,-0.4037235461905345,-0.39393376368185173
9.412,-0.23540482721800293,-0.23396326577007853
9.416,0.10079362147072035,0.0930266252508185
9.42,0.5048266688312182,0.4899802686074375
9.424,0.8403648825857164,0.8228358295612956
9.428,0.9879954460830307,0.9741602359650325
9.432,0.8931006847368956,0.8894357549007257
9.436,0.5893410556086423,0.5993139969338128
9.44,0.18549790500110674,0.20761217512775443
9.444,-0.18024808543370652,-0.15165725953685516
9.448,-0.3960561811298222,-0.36826141329398976
9.452,-0.4171171512681987,-0.39602007579315224
9.456,-0.2771229613222205,-0.26438360550344875
9.46,-0.0637844205991015,-0.05661575063316282
9.464,0.13283378002871293,0.13753135280405648
9.468,0.26319359462978387,0.2646343794931838
9.472,0.32325733278735536,0.31763471331064963
9.476,0.3337890332693667,0.31885901933927996
9.48,0.3194704015360883,0.2979313515525561
9.484,0.2972392895265823,0.2762619776279418
9.488,0.27490661513354553,0.26202845236188677
9.492,0.25642901649481686,0.2547199648156755
9.496,0.2451313190195339,0.25215498411207093
9.5,0.24193950278205878,0.2528235688783831
9.504,0.24427882396417333,0.2543449888380509
9.508000000000001,0.24843011781066981,0.2536666485686172
9.512,0.2521206475568518,0.24983128874194072
9.516,0.2549489320846601,0.24529219000993208
9.52,0.25708540575386674,0.24371312303910386
9.524000000000001,0.2579430959069313,0.24636087279407826
9.528,0.25550064836933717,0.24966691578854205
9.532,0.2462326855247261,0.24624066120757537
9.536,0.22668532862236734,0.2299209263153572
9.540000000000001,0.19600068252592884,0.19982141963538003
9.544,0.15679294688405387,0.15997983309053732
9.548,0.11403726807162196,0.11746898519002702
9.552,0.07333778533996038,0.0797848446777758
9.556000000000001,0.03969491212545928,0.05115467334168078
9.56,0.016628819537019,0.03116610907089501
9.564,0.004399169794761626,0.01697500295001686
9.568,3.1057160269298834e-05,0.006492938394020653
9.572000000000001,0.0014907613699737254,0.0006190676936197459
9.576,0.010154023134035128,0.0032500176613010634
9.58,0.02811179936612218,0.018766639315515254
9.584,0.05538209579974973,0.04899017470470879
9.588000000000001,0.09052323030381104,0.09170230454312511
9.592,0.1320039962372066,0.14089461496277678
9.596,0.1772725938913795,0.1888103439730462
9.6,0.22214325911349153,0.2294570334769519
9.604000000000001,0.26336751162564953,0.26075303616873025
9.608,0.3002372461649674,0.28432239710699436
9.612,0.3323381779369019,0.3045809275932301
9.616,0.3580410853104177,0.32605354476491444
9.620000000000001,0.37568724976516865,0.3493310458347867
9.624,0.38387260193044237,0.37031464414906523
9.628,0.38108906518645536,0.38369508705505617
9.632,0.3675256286366251,0.38691857507433225
9.636000000000001,0.34677986534925154,0.38119769218443467
9.64,0.3237610946540286,0.3684421381909415
9.644,0.3007646590165052,0.3476949484722669
9.648,0.2762139373901078,0.31630922809292894
9.652000000000001,0.2469492620395215,0.27463182806952324
9.656,0.21169606180690548,0.22738323924089854
9.66,0.17253150762905034,0.1797358194448031
9.664,0.13376092519216365,0.1342425512073846
9.668000000000001,0.09998550647829729,0.09255193848096055
9.672,0.07404499633883099,0.05743053977510226
9.676,0.055974750270884055,0.031245595206583987
9.68,0.044090044012673024,0.01409150456796282
9.684000000000001,0.036354506615372095,0.004618203845473623
9.688,0.031146131964477464,0.001982547749237895
9.692,0.028866194279749235,0.00672139740187272
9.696,0.03222818946510664,0.019983334236431505
9.700000000000001,0.04321180867615415,0.04202731059584908
9.704,0.061732860365651065,0.07125797496288366
9.708,0.08842866956068485,0.10428420198754651
9.712,0.12533830258594358,0.13743967251300915
9.716000000000001,0.17171641813081395,0.16908613287293406
9.72,0.2204208827172358,0.19944835243010917
9.724,0.25937876381239233,0.2270516121283881
9.728,0.2781738744101385,0.2475392120443558
9.732,0.27559106832851477,0.25772935457418167
9.736,0.2597907991785233,0.25802251955840094
9.74,0.24042795806215622,0.25052222007954716
9.744,0.22294792082587822,0.23862971420278312
9.748,0.20927599666105356,0.22775823823157304
9.752,0.2001936336547292,0.22270534237938655
9.756,0.19599677154717732,0.2244788224833809
9.76,0.19568373649881732,0.23049489890199815
9.764,0.19713194548326518,0.23604302960800072
9.768,0.1986804860054585,0.2356397193557762
9.772,0.19996512386864596,0.22646642626063507
9.776,0.20116709263527,0.21204838701315487
9.78,0.20146125958090777,0.19966849462548875
9.784,0.19901444766863463,0.1928754132326691
9.788,0.1930781027317423,0.18917509964671142
9.792,0.1849354243882071,0.18491094083566773
9.796,0.17684317111971515,0.17888323678146256
9.8,0.1710439438922724,0.1710486122333701
9.804,0.1688159358480119,0.16178452456374304
9.808,0.1695622318510801,0.15364924201878138
9.812,0.17185495926826744,0.15076352471982846
9.816,0.17565293966304618,0.15531287762462798
9.82,0.18209869559307879,0.16528039817875229
9.824,0.19063607093731183,0.17552465508459147
9.828,0.19780736246047392,0.18113325460794627
9.832,0.19986860397436512,0.18053063267980662
9.836,0.1960868024929412,0.17694590786383668
9.84,0.18928696425893055,0.1761392603167231
9.844,0.18317956070462804,0.1806502442329736
9.848,0.17942009613471166,0.18794608606564522
9.852,0.17755458053984152,0.19442199506576907
9.856,0.17631542096512787,0.19781663639932567
9.86,0.17375414779024112,0.1967224582220113
9.864,0.16796009091992814,0.1907317240323938
9.868,0.15952171389219405,0.18103077851675886
9.872,0.15251773244715627,0.17063180924146426
9.876,0.15189361073938268,0.1630789549165781
9.88,0.15917160387194595,0.1600110581045695
9.884,0.17063734538463038,0.16101631523745907
9.888,0.18090216154263272,0.1653462410156481
9.892,0.18780173276536405,0.1722547281853808
9.896,0.191461865525119,0.18055756030022896
9.9,0.19038910829996447,0.1889155438593304
9.904,0.18294792124246984,0.19619779263571746
9.908,0.1715704180473423,0.20160132569634293
9.912,0.1620137987737751,0.20484101521445908
9.916,0.158865733665285,0.2061250907773451
9.92,0.16247052346915547,0.20535084111575586
9.924,0.16923342566397537,0.20166712538550713
9.928,0.17473062235821835,0.19518111915667746
9.932,0.17712978036734905,0.18845991440685927
9.936,0.1780681739008234,0.18413153084836886
9.94,0.1804687348423244,0.18151925902540667
9.944,0.18541593779055798,0.17804853507980756
9.948,0.1915559394241837,0.17317305482570422
9.952,0.19823227075346828,0.16910818686670837
9.956,0.20733842355173504,0.16884440927697342
9.96,0.2199479713624961,0.17323520528160707
9.964,0.2334206283213287,0.1789289943401955
9.968,0.24436077870229678,0.18140993521614268
9.972,0.25277789364901704,0.1802089289096911
9.976,0.2609295600067527,0.17822468024257732
9.98,0.2683651954053645,0.17755038815816104
9.984,0.2697838614445449,0.17848164684883572
9.988,0.25817305024431736,0.18010898247520712
9.992,0.23038416584590382,0.1808090419578281
9.996,0.19115061102070108,0.18006978968178644
