Time,Channel_1,Channel_2
0.0,1.4897271464329245,1.215863882421916
0.004,1.522090364336986,1.222912839740276
0.008,0.6550786215612473,0.5326858647242757
0.012,-0.47545678415562576,-0.37288367029295777
0.016,-1.3072382787617634,-1.066443917709808
0.02,-1.478301120410456,-1.2375294232398533
0.024,-1.151929507325546,-0.906232812194465
0.028,-0.7106767238042506,-0.5001367187286713
0.032,-0.1977278999320225,-0.13870580765970372
0.036000000000000004,-0.11811548517104194,-0.1573471667755841
0.04,-0.025924128265232604,0.03482425098267138
0.044,0.0975637142430583,0.17394922281132652
0.048,0.10525287200073151,0.09334214156795927
0.052000000000000005,-0.1565101624074709,-0.04363095948227506
0.056,-0.22168815695366292,-0.15220336216180058
0.06,0.08868949514978683,0.010459450662072226
0.064,0.21947947222869132,0.2652841946461585
0.068,0.10637296486915085,0.15658242225656716
0.07200000000000001,-0.039022199352756276,-0.08541916825838904
0.076,-0.20052831285852568,-0.19922512359083241
0.08,-0.016034815241787532,-0.01778706210525811
0.084,0.15152695971143343,0.1806842394138377
0.088,0.14290807563574812,0.11390562348485896
0.092,-0.0990862166223043,-0.15218723408949608
0.096,-0.2457886932050888,-0.20335074146057938
0.1,0.05681695541979539,-0.02958449131444838
0.10400000000000001,0.218242584957984,0.19575553495073153
0.108,0.044037167359512235,0.1184109696283628
0.112,-0.2568145919914017,-0.17289238771376994
0.116,-0.3035904552257304,-0.33335596439268533
0.12,-0.07050951910830763,-0.1881976742789005
0.124,-0.05245928793976851,-0.04806339949929864
0.128,-0.14170461431144082,-0.13701530252979924
0.132,-0.5246312178795308,-0.45985724028165054
0.136,-0.5313922520238367,-0.44106262153951786
0.14,-0.33038250480367076,-0.3130852592928852
0.14400000000000002,-0.14179649186890947,-0.04818303438205991
0.148,-0.19408627588267588,-0.15291930180925406
0.152,-0.3755210987540049,-0.35080251268928725
0.156,-0.2806964758768441,-0.3070221319822832
0.16,-0.16544051933189552,-0.08148671138325037
0.164,0.1457440544632581,0.14267930317142197
0.168,0.1639553773114969,0.1588277872167185
0.17200000000000001,-0.10385033463032148,-0.050844322412321265
0.176,-0.11390433532819325,-0.0024199209300561075
0.18,0.12058866575089913,0.2012981831083846
0.184,0.4304692210117798,0.4118512255389554
0.188,0.40482247640131236,0.42881772916427524
0.192,0.260216289834148,0.2002763078953691
0.196,0.1418492269078294,0.1019835645549184
0.2,0.31871975678379383,0.31071823284414124
0.20400000000000001,0.6150464460742463,0.4449849110814844
0.20800000000000002,0.4720980979405595,0.4347391006639184
0.212,0.24499755907786835,0.25815907188646553
0.216,0.07489309346607186,0.005550511125054253
0.22,0.10870304675226442,0.10405254476838946
0.224,0.3955598544795661,0.3174784112457195
0.228,0.17396519044111616,0.08973056250453589
0.232,-0.06081414059503215,-0.12551074229482756
0.23600000000000002,-0.27618449862092587,-0.24672565669342408
0.24,-0.11353827117119655,-0.1050699385418346
0.244,0.058323107845064684,0.003839259678069128
0.248,-0.10127932162094505,-0.10054074171334233
0.252,-0.3911321366004379,-0.29225696185903444
0.256,-0.4817701241296797,-0.4212481385529554
0.26,-0.31287370331519027,-0.2427375992490455
0.264,-0.0857223927130271,-0.02812656796069686
0.268,-0.12915866957347827,-0.16900065507932407
0.272,-0.4117599077723681,-0.35623087346300386
0.276,-0.43099758006789934,-0.3874815600386148
0.28,-0.269386690485487,-0.1971450206002607
0.28400000000000003,0.020708908357211446,-0.019307405977348452
0.28800000000000003,-0.03143483667257689,0.03924202737436301
0.292,-0.11045221843183667,-0.081388819442018
0.296,-0.10339327752976799,-0.0707379722873411
0.3,-0.005158898000962225,0.08348536337507796
0.304,0.21670048520590082,0.18130479996459814
0.308,0.24126539436045608,0.10676688667881545
0.312,-0.07163656144225897,-0.09123607014663081
0.316,-0.2153256679224816,-0.21153547848728127
0.32,0.04886963971375215,0.031248019772324772
0.324,0.16658541829516696,0.2009094647243047
0.328,0.14333770763970122,0.09765439005935725
0.332,-0.0716429009676793,-0.0641118551242001
0.336,-0.20350538567912624,-0.12525043504813857
0.34,-0.035603740025268595,0.05006429942503785
0.34400000000000003,0.2503189949381275,0.2488785357787097
0.34800000000000003,0.0845184842378448,0.1738076062209421
0.352,-0.057200111151636986,-0.04376791903904714
0.356,-0.08474161889749894,-0.09653585421769832
0.36,-0.013209695521018507,0.07486888669982951
0.364,0.11562805012603644,0.17365840321599588
0.368,0.1960233619008616,0.17875419745953047
0.372,-0.053434952548754217,-0.055321260848788786
0.376,-0.14301044269586524,-0.17028409724935503
0.38,0.05180188275230346,-0.006915736937543281
0.384,0.2581419290312652,0.19513060079889152
0.388,0.12777890410021195,0.0869397649858419
0.392,-0.044306992872411424,0.0077354908427882535
0.396,-0.16456357274067762,-0.09678956558280352
0.4,0.047777028824242694,-0.022728487827230755
0.404,0.16988820566992135,0.2226506961154869
0.40800000000000003,0.20672477647585558,0.09457035734252218
0.41200000000000003,-0.015958555178628514,-0.05413682940372294
0.41600000000000004,-0.09898009069460001,-0.1049548805616432
0.42,0.016210005328894345,0.051385445802615386
0.424,0.29859947116610697,0.26544137807237045
0.428,0.1693643596068279,0.12102248807610835
0.432,-0.018043212027864484,-0.12618728932358342
0.436,-0.0957011721620643,-0.19028267589457146
0.44,-0.02183669344553553,0.03019042572705105
0.444,0.21210146437007862,0.22738499601302542
0.448,0.17757312094072866,0.10289629380862145
0.452,-0.06524673488152001,-0.1173490579784672
0.456,-0.09651732179085118,-0.1682134962431799
0.46,-0.026100706243019266,0.06775224479403055
0.464,0.21346932800610385,0.23283584248101205
0.468,0.10915609616551603,0.2056086610159376
0.47200000000000003,0.0005020088212435853,-0.10237531943769634
0.47600000000000003,-0.07697977773349453,-0.15857866368377155
0.48,-0.053045157729262896,-0.0214974773242775
0.484,0.2514635715088404,0.18034607019806112
0.488,0.16143157800300617,0.17340060320004289
0.492,0.06867533131420217,-0.046018350986283374
0.496,-0.11465864715758109,-0.20940856692927917
0.5,-0.013091170613527388,0.06446574060966818
0.504,0.2907540456554772,0.18631609385937095
0.508,0.19691071272677715,0.20681972680063715
0.512,-0.11279597520989107,-0.061169439079011664
0.516,-0.16911951203239695,-0.1250374296364555
0.52,0.07443496676951072,0.014074124145235043
0.524,0.20685383646483924,0.23618445708388747
0.528,0.24476623168039158,0.08671758928325674
0.532,-0.12236394344261961,-0.06975490631892675
0.536,-0.1376166040585528,-0.12384149032704432
0.54,0.0771343223748899,-0.015706373418008596
0.544,0.21260509887853266,0.2599329131437086
0.548,0.25876889515864676,0.16826309972571427
0.552,-0.08188134833383655,-0.02813941656326062
0.556,-0.22564995824858547,-0.17017038985263405
0.56,0.09566518306466204,0.0847955998054857
0.5640000000000001,0.13668401372702393,0.18069564974142846
0.5680000000000001,0.20298903200378154,0.13002337972809289
0.5720000000000001,-0.087686489234122,-0.15032033711287793
0.5760000000000001,-0.12717920262861035,-0.12180134342161479
0.58,0.07630296831199805,0.051072578292701606
0.584,0.19421985837244554,0.2044455301189863
0.588,0.21953405743005924,0.17930879986584194
0.592,-0.03151902883936406,-0.09481142519987598
0.596,-0.12317126534970249,-0.14740944208138246
0.6,0.10055729276918257,-0.013467469392315523
0.604,0.2998490841083223,0.2710982961063864
0.608,0.2358873937621609,0.14364420447851206
0.612,-0.03320643810864425,-0.05642762552374119
0.616,-0.2121379183830664,-0.18768166503341316
0.62,0.03589747602862285,-0.018103280792714102
0.624,0.2609686927609476,0.21036168116834256
0.628,0.16759666118630503,0.22022606111039472
0.632,-0.016538118700737472,0.01366169733345498
0.636,-0.12250867055046279,-0.05544425737753765
0.64,0.026874038997610268,0.06133419431611266
0.644,0.31682594567100714,0.20770430243995466
0.648,0.2508035501583083,0.1892192821243352
0.652,-0.0042526773486465524,-0.08241642732719512
0.656,-0.0627294820923981,-0.13946078890582186
0.66,0.041631021205263345,0.042050741346616655
0.664,0.2115824268419843,0.10697344074487874
0.668,0.029009555160068364,0.04285129188419028
0.672,-0.21090219073008193,-0.2768637304763041
0.676,-0.3348980694636615,-0.3083513788048643
0.68,-0.11701050961742177,-0.1824251539076111
0.684,0.0819952755920544,0.02095170922130954
0.6880000000000001,0.16649425739954857,0.05848354588034809
0.6920000000000001,0.030890423859452384,-0.08396851310463506
0.6960000000000001,-0.01978137848961757,-0.05661570610605089
0.7000000000000001,0.24037931093154769,0.13559678159026062
0.704,0.489893070194938,0.425560127713716
0.708,0.3231092549343324,0.3873757035129601
0.712,0.19849782979244318,0.17427502456592114
0.716,0.041967010416234345,-0.05440330890251567
0.72,0.09248880501514375,0.08025712660835743
0.724,0.1838199095190531,0.1980068789618425
0.728,0.028409593988532343,0.1462119722463771
0.732,-0.32659566486832714,-0.2096856898098994
0.736,-0.3539670836243609,-0.27306380326662305
0.74,-0.1418922746468914,-0.21720059265031683
0.744,-0.02930682137408118,0.033534332872863636
0.748,0.110045400656403,0.0595070839747461
0.752,-0.14153896589469997,-0.11498505376899451
0.756,-0.09083327018942611,-0.024790442915960775
0.76,0.06367995867315944,0.1315263410726309
0.764,0.24667054748950376,0.1968414547829233
0.768,0.18078057925100796,0.19147492588857798
0.772,-0.04448780337101405,-0.08910903542677606
0.776,-0.10709380124241329,-0.15842840094530783
0.78,0.1307871177930951,0.09323436957889492
0.784,0.2719054805851761,0.2343243235001406
0.788,0.16332437026248922,0.1145646223003986
0.792,-0.10837700885833246,0.10198232082132741
0.796,-0.1398201057501108,-0.16458026492553213
0.8,0.06770796296005048,0.06758797528524835
0.804,0.3132405570763232,0.3027662756588518
0.808,0.19713655401087687,0.19149809065381138
0.812,-0.1134953755401408,-0.05260335674300091
0.8160000000000001,-0.0864183363840029,-0.07422593110697484
0.8200000000000001,0.015438597389855091,0.002272568972556961
0.8240000000000001,0.23196882820139317,0.22279970036954164
0.8280000000000001,-0.3214363559734254,-0.19058425895383974
0.8320000000000001,-1.326542545006158,-1.026318537809304
0.836,-1.585716322309702,-1.3073585337464044
0.84,-1.1328256568228234,-0.9503202352146758
0.844,-0.2532318120171586,-0.2683897646226765
0.848,0.5861147491505304,0.4754350806521085
0.852,1.0463569980645775,0.7948709824670407
0.856,1.3291993498509556,1.1031159726658935
0.86,1.5091857709525316,1.1416049515193412
0.864,1.0414101511828722,0.8645541824508297
0.868,0.14533126473990815,0.0272041006383639
0.872,-1.0059347768241407,-0.8057362863810946
0.876,-1.5439693071523377,-1.2038166056434294
0.88,-1.3753154819663194,-1.1208203379327906
0.884,-0.6965309086645509,-0.5077916712965148
0.888,0.18256311768873346,0.2316023567651079
0.892,0.08745580221897667,-0.044205004494580896
0.896,-0.13709406251795364,-0.11700168364412461
0.9,0.09819797240721095,0.007548694586044319
0.904,0.2269130235647172,0.2260675529212544
0.908,0.2650649330746516,0.13044022598781818
0.912,-0.05958099760249837,0.03505263645196004
0.916,-0.20144316837770443,-0.0788805232504918
0.92,0.01405110165019978,0.08360257067960736
0.924,0.3027647039028908,0.24520171214339193
0.928,0.22171360500387755,0.17322938042572422
0.932,0.06284332951724647,0.00982711119437224
0.936,-0.1301852246276184,-0.1132475406446116
0.9400000000000001,0.11222715055887503,6.23558351438569e-05
0.9440000000000001,0.26702141220728154,0.2414776986437394
0.9480000000000001,0.20511608703912637,0.1673693729938253
0.9520000000000001,-0.05128069399556255,-0.06709401362067785
0.9560000000000001,-0.0745890508479234,-0.07536327542944347
0.96,0.08781012650299275,0.16031203219211343
0.964,0.3729977716830686,0.23260748766235254
0.968,0.04277352594061587,0.050393057446673925
0.972,-0.16720423359330905,-0.2203303636584399
0.976,-0.31890988885748384,-0.2592464373028083
0.98,-0.1830595062186348,-0.15372356815642255
0.984,-0.05210489416184759,-0.060913299400830734
0.988,-0.08437429671083482,-0.09785750482771927
0.992,-0.4041948543821793,-0.31044958664870587
0.996,-0.3919626714236316,-0.3977102672286538
1.0,-0.27016556236244244,-0.21069965907400243
1.004,-0.021735451670233375,-0.0028211377956505607
1.008,-0.00809698353303668,-0.06561932342627513
1.012,-0.2001508658396958,-0.2296363381092435
1.016,-0.285130448338448,-0.2631323944379237
1.02,0.05407353854302654,-0.006436320292166583
1.024,0.21678434302599067,0.24204527568851528
1.028,0.3011288774480123,0.2450711303334511
1.032,0.05035842795967996,0.01953810398545626
1.036,0.1453254969570002,0.010393193956833434
1.04,0.3629573019555469,0.257083068494703
1.044,0.5772059516127985,0.47248816099408386
1.048,0.5551048004342094,0.5183173541602059
1.052,0.2339776795306195,0.2600579222959351
1.056,0.2721109878887922,0.2156451841247905
1.06,0.46717662873884747,0.3727661124732992
1.064,0.5781523655197869,0.5380266104072008
1.068,0.49557848292150447,0.4450966479433977
1.072,0.2145648363551067,0.20088910484484876
1.076,0.16322171734930194,0.1211229522502921
1.08,0.20270997035161809,0.17249487008000142
1.084,0.38697131477637564,0.266476897709753
1.088,0.21897324838743426,0.12604339909694967
1.092,-0.15766553307670428,-0.061806279264807015
1.096,-0.21171824871199124,-0.26620012417286804
1.1,-0.045128840688932095,-0.0699290750913881
1.104,0.07413353381449497,0.02660732376976003
1.108,-0.18719028537227195,-0.10297472575228198
1.112,-0.3378589263526265,-0.3159932936782302
1.116,-0.3519356382267581,-0.32029197584602787
1.12,-0.26368670277422984,-0.2174939832193544
1.124,-0.03172238913789646,-0.047951031831359354
1.1280000000000001,-0.1756141059211046,-0.0461291781541996
1.1320000000000001,-0.241575449628244,-0.2938147193142567
1.1360000000000001,-0.3494190883918522,-0.34186164991185736
1.1400000000000001,-0.04802736230310505,-0.03676239353103293
1.1440000000000001,0.06546341391490118,0.08561275930513276
1.1480000000000001,0.20545598305689766,0.07906765865793508
1.1520000000000001,-0.015377862867253268,-0.04424999620159525
1.156,-0.010822349497768677,0.07625521150830296
1.16,0.17188730731548219,0.09855519284879241
1.164,0.24929166149595122,0.18955532375755607
1.168,0.23021578323744882,0.24359498868474586
1.172,-0.009129487584332019,-0.08422221383035082
1.176,-0.1156024730012695,-0.1102667257536197
1.18,0.04838037558461726,0.0671594866937463
1.184,0.3010514388248443,0.22307807931907414
1.188,0.15396488249854393,0.26035804584905065
1.192,-0.04200388809353207,-0.025725616364569364
1.196,-0.08090427626397628,-0.09825063663890723
1.2,0.12123339032017225,0.054508263041371935
1.204,0.34036779850007537,0.26938259173847146
1.208,0.18042470704808347,0.19056076084201087
1.212,-0.049491028675143565,0.004073350347172398
1.216,-0.09018662676842917,-0.10520323355360423
1.22,0.04484417605784978,0.10196582817435196
1.224,0.40329358438679974,0.2546319463878905
1.228,0.20130217524855593,0.24204300708314752
1.232,0.10677154243812473,0.0016293253565736916
1.236,-0.08002953168399349,-0.0670049190290492
1.24,0.15372005893811436,0.09518919835924998
1.244,0.2875983018863525,0.2135037495932791
1.248,0.23152614606080463,0.19427239789866718
1.252,-0.07909057476167222,-0.014960589725906146
1.256,-0.10257737885734833,-0.12544086972590895
1.26,0.13399912099008862,0.1033389637255415
1.264,0.24761848609951964,0.18988642370053893
1.268,0.17630091140110402,0.17062410620683033
1.272,-0.022136062578964846,-0.020070085159917112
1.276,-0.1682782834056654,-0.04023835810219636
1.28,0.049755283517520094,0.0632920102489386
1.284,0.2824502821787084,0.2837274445602295
1.288,0.26394426762254064,0.13671751437312557
1.292,-0.01510887062975318,-0.024411864675003083
1.296,-0.03710575528288004,-0.09928191635897199
1.3,0.2257934605485086,0.12694121748995396
1.304,0.31487246478336695,0.26006394903221525
1.308,0.18196470749428123,0.1741095045280375
1.312,-0.03703639435741494,-0.059995171503093636
1.316,-0.13737563286586862,-0.129395789236344
1.32,0.1176865592919416,0.13149518264834903
1.324,0.38351375855672853,0.309894974981436
1.328,0.32521147636224623,0.16383503085544304
1.332,0.009344225240829698,-8.201471438287061e-06
1.336,-0.07318572585542568,-0.07924320385007559
1.34,0.10588476017304081,0.11816318877793125
1.344,0.29599830177684694,0.32434002490337005
1.348,0.2218235822446146,0.2549800546034578
1.352,0.1398183507474739,-0.024019989924430194
1.356,-0.012002284032218327,-0.1333445311130432
1.36,0.11747467398366807,0.10923897512038001
1.364,0.33167356484366894,0.3154523125083941
1.368,0.3526240227239705,0.23670620420973784
1.372,-0.030958222841008028,0.05834410043638735
1.3760000000000001,-0.09539163881111169,-0.12315067325263868
1.3800000000000001,0.02988924701878315,0.12853961837847994
1.3840000000000001,0.26683333950883803,0.275226450507942
1.3880000000000001,0.3457784284308208,0.20512083056849706
1.3920000000000001,0.0589951322090311,0.005496568181652759
1.3960000000000001,-0.1122088942945037,-0.09897482061533264
1.4000000000000001,0.03705739521112206,0.1269840101959953
1.4040000000000001,0.33869175659132356,0.16901180916065964
1.408,0.2757419036574968,0.21774026906451596
1.412,0.08358731705138302,-0.06812991619323583
1.416,-0.03343251848031918,-0.057969194012791825
1.42,0.16298956033596868,0.044425701707357663
1.424,0.3272426708475678,0.28862020413261746
1.428,0.2181021315231667,0.20405499791954745
1.432,-0.002105269996157254,0.019513072317531494
1.436,-0.030192760027114966,-0.06968470998985786
1.44,0.10032242950273206,0.07150738205338483
1.444,0.2398336062307111,0.24874439782961297
1.448,0.2208116798748138,0.1947177788444446
1.452,-0.03767150091901358,-0.027340927895511458
1.456,-0.03576387651279628,-0.14993065743415473
1.46,0.10137251040868851,0.051900491489222766
1.464,0.31328820545577624,0.2048241745568626
1.468,0.30125210934608226,0.23486828096837148
1.472,0.055021395687772326,-0.039661032422061
1.476,-0.06712846679795066,-0.0947208805114019
1.48,0.12381810938817157,0.11482834028432556
1.484,0.40281040726908274,0.2551205333810457
1.488,0.29127938021637795,0.25760391994184495
1.492,0.04869054531469334,0.020873962605289204
1.496,-0.074555459609364,-0.06608000550295322
1.5,0.16182656368872078,0.17531667305653517
1.504,0.27722143408647626,0.23065359199094643
1.508,0.282236538806919,0.17328557458194277
1.512,0.06886921236484625,-0.019051208816909228
1.516,-0.041224710985419216,-0.003983830895421855
1.52,0.08816082646286573,0.007782846107349521
1.524,0.27305835756177743,0.10119925665412122
1.528,0.05650756180304724,0.06441087064803847
1.532,-0.2767829227410137,-0.17885192230059643
1.536,-0.3288841358647277,-0.29306390212263506
1.54,0.020209705198922255,-0.07254954772352026
1.544,0.2623062817748094,0.1717498093172932
1.548,0.28452522446117084,0.23761769479945977
1.552,0.11620280179950901,0.04921957368694914
1.556,0.04202614666140084,0.06905873287599117
1.56,0.3133647241208468,0.23593337241495466
1.564,0.648964535175961,0.46002628736776313
1.568,0.5636373049804377,0.4028491590300068
1.572,0.16702309347435487,0.16930083702512233
1.576,0.028850965348584938,-0.005263169740222756
1.58,0.004823934721128187,0.11017016434659958
1.584,0.21794161441627055,0.20245353613608238
1.588,0.10185512104602665,0.06655648977010084
1.592,-0.24438303691165986,-0.13191007695576334
1.596,-0.33899388044868617,-0.1886393783440628
1.6,-0.10241500161493707,-0.02796875024398031
1.604,0.1810393907537296,0.13753543331607024
1.608,0.19569193793787892,0.21236076697455578
1.612,-0.017882540300080782,-0.03413012587883201
1.616,-0.0852843117456848,-0.11232351058064743
1.62,0.16961928955161193,0.13364147073210336
1.624,0.35176578756268984,0.27868994311465883
1.6280000000000001,0.24122114816409174,0.20432527502027978
1.6320000000000001,0.028451858089057352,-0.07322980632521904
1.6360000000000001,0.038859475529561635,-0.07673517017481589
1.6400000000000001,0.17333421968906698,0.09633504358872585
1.6440000000000001,0.29651435215844146,0.25526415555155335
1.6480000000000001,0.27862354184950766,0.23282267875496382
1.6520000000000001,-0.0010576739765346607,-0.005832953296950546
1.6560000000000001,-0.022871038942440837,-0.09819140942502702
1.6600000000000001,0.16496637033042927,0.1460976674142103
1.6640000000000001,0.38811261690822857,0.2938700123301522
1.668,0.2407047671363028,0.24355204221286347
1.672,0.026481459984725585,0.04783377938600631
1.676,-0.09462345090863057,-0.07363315045054653
1.68,0.09161803290432827,0.12216411271624578
1.684,0.35373416937354396,0.2719384219674269
1.688,-0.7546225992417508,-0.6178886042206376
1.692,-1.4379598675910108,-1.132185956323306
1.696,-1.4510586055017778,-1.1291103692287556
1.7,-0.6969040459945094,-0.5308724052155506
1.704,0.4209473089504039,0.2858053134571088
1.708,1.1355401729203796,0.931451577412057
1.712,1.452928081985086,1.1266301136362409
1.716,1.439719536121425,1.1462092458981608
1.72,1.146825205235035,0.9327016491083185
1.724,0.5814904438954774,0.4019627686493844
1.728,-0.36891762761167035,-0.3473561557782732
1.732,-1.3248900707783413,-1.0678693773745087
1.736,-1.5429932439773948,-1.240939769831864
1.74,-1.0647021502131868,-0.7545659381842891
1.744,-0.0018910395793179761,0.059544765731157204
1.748,0.2747842784921198,0.24483590911444958
1.752,0.021504599117818993,0.0007817828285359568
1.756,-0.002230956095244929,0.010949008626080524
1.76,0.12299609701466034,0.14445539053395817
1.764,0.32269095467003855,0.2971919519515755
1.768,0.2124181013680931,0.22904281914917765
1.772,0.02047326441855257,-0.03514914943943111
1.776,-0.12326258976273007,0.02718631391906437
1.78,0.1533978489594289,0.2228821533267747
1.784,0.3566659968257889,0.35409470804872856
1.788,0.25360465363747836,0.26531163594109697
1.792,0.03436664009151137,0.05090127722841756
1.796,0.0035018089523780396,-0.008634552182643633
1.8,0.1347869889303491,0.1395216095489594
1.804,0.3933181819064612,0.3302880220114446
1.808,0.2723070509203034,0.2158724796395458
1.812,0.031460859846100454,-0.007795079194474093
1.816,0.021752742238516358,0.06690443337243324
1.82,0.09161636153006868,0.0947570411025077
1.824,0.2505470874149194,0.278809813624122
1.828,0.16624115186461025,0.12850218339898267
1.832,-0.1327982479951332,-0.1447824667387463
1.836,-0.2703793965666893,-0.2984859876153455
1.84,-0.04451598419139248,-0.12184698754553777
1.844,0.0005145757889830453,0.013232916039068229
1.848,-0.1018908453579218,-0.003493112826503386
1.852,-0.2248279375646726,-0.2798292831002167
1.856,-0.4018187301137631,-0.3079516996047912
1.86,-0.1567451350293353,-0.16567218189026836
1.864,0.09655680880554576,0.11969272557141236
1.868,0.04194819118880745,0.07553386724039554
1.872,-0.13143388496639208,-0.13091864711844056
1.8760000000000001,-0.1688557358634778,-0.11989870405347552
1.8800000000000001,0.22626714436532552,0.02465975104026155
1.8840000000000001,0.4257849155948867,0.3378720424832997
1.8880000000000001,0.4013735114089793,0.2674567525214601
1.8920000000000001,0.23798395073883405,0.2905216689256841
1.8960000000000001,0.14769210179898928,0.18665869240595867
1.9000000000000001,0.4055715383894553,0.39286020921082065
1.9040000000000001,0.64281101545518,0.5597591362823634
1.9080000000000001,0.6244382217041379,0.522515550688728
1.9120000000000001,0.46458438543665737,0.30726942141351776
1.9160000000000001,0.34419579110849424,0.2240161146025912
1.92,0.42236646988663423,0.47942420227715804
1.924,0.7049579997019941,0.5593904971625363
1.928,0.519111604327626,0.5063631948599574
1.932,0.22378072431379833,0.2657862541315724
1.936,0.1388081384997285,0.11134031706933861
1.94,0.2716991271607141,0.2834999987353839
1.944,0.2641866628751665,0.38684218941554044
1.948,0.28501223710957707,0.26721425306274216
1.952,-0.014799915705975206,-0.04222493287644509
1.956,-0.05544512310917382,-0.19850493572076489
1.96,-0.15526566937402445,-0.015815542079075054
1.964,0.11177896784960169,0.11963513353554676
1.968,0.007177913717112603,-0.01095002216888793
1.972,-0.21944348893282553,-0.2597610112590922
1.976,-0.3324861478002758,-0.29040494684446205
1.98,-0.19425560375036371,-0.16928969090025087
1.984,0.08359405774608368,0.04451145572903274
1.988,-0.019877009673899923,0.009283825372826623
1.992,-0.19872893907001593,-0.16838904185111508
1.996,-0.16821508790861103,-0.19025835201753535
2.0,0.016754459677225393,0.04585240480447686
2.004,0.26679101278086703,0.2694786379218356
2.008,0.23131910642721307,0.3174207013383806
2.012,0.14882325004064806,0.06851708155439928
2.016,0.01307314875433075,-0.06701551490992892
2.02,0.17409843148294596,0.12719655486489292
2.024,0.2720285812034594,0.2519258957630246
2.028,0.28128796444546816,0.2946560514556586
2.032,0.05118182103732683,0.0630092387114914
2.036,0.0021696480800826104,-0.02387231123480221
2.04,0.12710278782601914,0.20335571958717205
2.044,0.41890183119122604,0.30919548930935015
2.048,0.17876389795354444,0.33893855563121716
2.052,-0.0014426935154111253,0.0694793106557091
2.056,0.026056420143658422,-0.04017218612035621
2.06,0.20735904061106608,0.13621474501528946
2.064,0.417265626008347,0.29257113695187376
2.068,0.29134071953349044,0.24194746780612156
2.072,0.12999453266920524,-0.07904464669110502
2.076,-0.10258757900618208,-0.011754932541684462
2.08,0.19298442778163938,0.11987045304991648
2.084,0.40520049226171334,0.360092809322858
2.088,0.40900637456018824,0.2756807349633974
2.092,0.01869211278737727,0.008364563114244439
2.096,-0.05246757128340727,-0.04379655978733035
2.1,0.2508154625327427,0.15371184111631933
2.104,0.3074560216234863,0.2659876890074618
2.108,0.4436423683494142,0.24166817180755254
2.112,0.021707895484936623,0.0881021818828058
2.116,-0.011631804373132645,-0.11180589092245148
2.12,0.14338241825834563,0.16567238236428308
2.124,0.4527481993261695,0.39194969049253486
2.128,0.337790363790955,0.2910676191369743
2.132,0.01538330976054799,0.11754004051889716
2.136,-0.004671846394238615,-0.01638268659160547
2.14,0.23760007365301686,0.16588488811618526
2.144,0.32831122769954635,0.3116033654747835
2.148,0.3284333399201841,0.25605459314715323
2.152,0.08367149271028419,0.007618673362951307
2.156,-0.07035612318590088,0.011690531953919857
2.16,0.1047421131232598,0.1997887614477325
2.164,0.44854335684397484,0.36098411433905275
2.168,0.32362722102789715,0.3202710592975502
2.172,0.08095888608981282,-0.007403482433856731
2.176,-0.010209641027261043,-0.03029850218352783
2.18,0.24472456582766314,0.18312376922331525
2.184,0.41879721661202196,0.3419036085230057
2.188,0.37203085045784645,0.27900584678918183
2.192,0.08716636866682041,0.004916841094498581
2.196,-0.02545477175099428,-0.024786660167644886
2.2,0.13166333004353103,0.15033557648835225
2.204,0.5106673625329509,0.30951368352695396
2.208,0.3016742669572454,0.2451125239045042
2.212,0.10032838477675278,0.052389311165226986
2.216,0.06459737106029775,-0.05291639502314251
2.22,0.24387765406906517,0.1640496569910719
2.224,0.3713928201783523,0.3503947904243839
2.228,0.29973604869210113,0.28933439808919487
2.232,0.09205561079310656,0.034254229379240386
2.236,-0.11227563028674391,0.01953231559606672
2.24,0.1770867150997834,0.14352314586922585
2.244,0.3801473592427808,0.33552876043155194
2.248,0.3802571271403669,0.2618002161511261
2.2520000000000002,0.09079601165609147,0.042481828983351226
2.2560000000000002,-0.02097044671326402,0.04412609884480971
2.2600000000000002,0.20997600804569852,0.216658572202671
2.2640000000000002,0.4051695338993863,0.26793370621041607
2.2680000000000002,0.31912435445173143,0.28602055598339565
2.2720000000000002,0.0876914173941585,0.0794470258836959
2.2760000000000002,0.034470967498420504,-0.04053822359809341
2.2800000000000002,0.25483377761435044,0.136135026454473
2.2840000000000003,0.3437101805754965,0.2529837072545231
2.2880000000000003,0.35714673550509485,0.2757596699943866
2.2920000000000003,0.12617002426704066,0.06617658570900788
2.2960000000000003,0.04409610895037258,-0.016563069260554602
2.3000000000000003,0.28696124024437314,0.1717012865528492
2.3040000000000003,0.43737614955744336,0.32527235872429705
2.308,0.28421261258725583,0.29364360403512496
2.312,0.17241052263378437,-0.05245922890507214
2.316,0.041767931364701326,0.04004901931950329
2.32,0.1672985037871473,0.1307755883641486
2.324,0.3771334265842148,0.30981696822756494
2.328,0.3398528291475874,0.2596696754710631
2.332,0.14696631419728165,0.07488453990527744
2.336,0.0387480858485858,-0.04813113357707632
2.34,0.19912214655400728,0.13952897667591416
2.344,0.35880018162444954,0.282296379969004
2.348,0.30623834286842966,0.2557138358949943
2.352,0.02382221247149917,0.03446183723843124
2.356,0.02257359484446781,-0.014502303112473983
2.36,0.2607014108029601,0.09534915633836628
2.364,0.43296397268082065,0.33779872795933413
2.368,0.2984235433327253,0.2692642178189877
2.372,0.218356424519476,0.12926825883715046
2.376,0.0011718890653877392,-0.10075278683735708
2.38,0.10455535275926037,0.1361227092956609
2.384,0.21553966645635725,0.14447871374746787
2.388,0.057926788096847315,0.10369286824462379
2.392,-0.11209595948690348,-0.10517418626012545
2.396,-0.13541298888082284,-0.17848826128184597
2.4,0.13746227872092487,0.04235823188424683
2.404,0.36142321691009677,0.3387047781897025
2.408,0.3265920824335331,0.3493452817164731
2.412,0.3093395310936886,0.20306080098913795
2.416,0.2228665210784462,0.10068027815337113
2.42,0.49939610309477234,0.38640497733706747
2.424,0.5686607026375187,0.5625424520480982
2.428,0.5269908422247506,0.4112338290674769
2.432,0.20547257374861777,0.18342806017052427
2.436,0.05957963763683108,0.04645195630135155
2.44,0.07768382600968496,0.1114558174029192
2.444,0.23499047890995756,0.27062881971741776
2.448,0.017016843779858917,0.12246688977445774
2.452,-0.19570055951417717,-0.15143081097703479
2.456,-0.34088084407983715,-0.1872803866377241
2.46,0.10548169414807801,-0.01250243091032378
2.464,0.3225312649333293,0.20823651552096334
2.468,0.27136797864455475,0.26028010167481885
2.472,0.07255235733294293,0.1388574076042759
2.476,0.06921015309352613,0.02576749558188078
2.48,0.14693779313674152,0.17598875328818578
2.484,0.4031060649625704,0.34765804621286467
2.488,0.42954288440950783,0.3061785363097242
2.492,0.1304815463559072,0.09606618634542036
2.496,0.032472247305284994,0.03292953462707676
2.5,0.2770544401893953,0.15648306990773464
2.504,0.3494023876651585,0.32408799166181
2.508,0.3239242225720283,0.2887668989252445
2.512,0.13033727974039866,0.08177082125881516
2.516,0.03293016714337108,0.002657230130660508
2.52,0.2551534926439335,0.1825478747267578
2.524,0.3973788304858847,0.3461390613293428
2.528,0.3755033292211217,0.23363341261430154
2.532,0.09663342699745764,0.07099222483177021
2.536,-0.04653576982156048,0.0483726459691411
2.54,0.2638430074553304,0.15820576060983338
2.544,-0.5142933922854656,-0.31605326865990924
2.548,-0.9605367718634727,-0.8622272193608184
2.552,-1.4243226439556218,-1.0765366138984358
2.556,-0.8795305228631485,-0.7846803236194205
2.56,-0.03782047001112476,-0.012588923085694433
2.564,1.0070701834399556,0.8378868275929676
2.568,1.573719446713928,1.3637774163119203
2.572,1.6840723561754756,1.299959960992487
2.576,1.2107432941997713,0.894706950046583
2.58,0.7835563550303524,0.4427968621774367
2.584,-0.051872708907927965,-0.05831565301657607
2.588,-0.8487616572384051,-0.6257018915846777
2.592,-1.3503780905821603,-1.0711351005249956
2.596,-1.3193313930838415,-1.0008765261708454
2.6,-0.36145993612482624,-0.2872573388878911
2.604,0.4511203970719173,0.3694780267090671
2.608,0.29938072120778436,0.3013006853356768
2.612,0.12724099429779354,0.0715687437685819
2.616,0.009211322141139889,-0.04209805146306332
2.62,0.24876299003549518,0.254888500158024
2.624,0.42308293902358984,0.35070410935769597
2.628,0.24044495228256846,0.2624422438124589
2.632,0.07701482756438607,0.12859263817379554
2.636,-0.03834677959685745,-0.01914522738605553
2.64,0.3225881575067633,0.1796815946106796
2.644,0.4057720399708633,0.4038106862932423
2.648,0.3606557791816924,0.29759580458938145
2.652,0.051217202539200084,0.07856066939640133
2.656,0.04245557447350595,-0.031764712845190064
2.66,0.3508830130206586,0.1580767057366597
2.664,0.39219942953469045,0.37854294396076266
2.668,0.3089370876216013,0.29200815763206656
2.672,0.3153842122923337,0.18563180297301327
2.676,0.059570735038173006,-0.021367017500242218
2.68,0.17776100200329095,0.12613177401241937
2.684,0.2105351783130895,0.18748231482705288
2.688,0.13900339514607465,0.07844739198097339
2.692,-0.0907019119208868,-0.10021270075894304
2.696,-0.2558613240521735,-0.19510806013831244
2.7,-0.12300451187739957,-0.07147198722237777
2.704,0.07216046337643518,0.09370835487408286
2.708,0.047482349101890815,-0.024068664708908373
2.712,-0.2978316479004589,-0.15225115504862952
2.716,-0.3132576714668722,-0.2796269408777443
2.72,-0.08536659279296334,-0.03721708561993339
2.724,0.1378689839725206,0.16483762954554795
2.728,0.2001578041755283,0.17830264023373152
2.732,0.06878175724265334,-0.008717605052442762
2.736,-0.010725485613326327,-0.09463840074576366
2.74,0.2082177384966468,0.22853399042685302
2.744,0.4422071813123559,0.3851488812825898
2.748,0.4613315864838459,0.4116352167014769
2.7520000000000002,0.32764648330411306,0.23346104799322054
2.7560000000000002,0.3796226171565777,0.22542788323653415
2.7600000000000002,0.5522997453023076,0.43706068613140137
2.7640000000000002,0.6594848412094954,0.606917328760326
2.7680000000000002,0.6976744648512135,0.5406337800117703
2.7720000000000002,0.5133809203745663,0.3744216451877267
2.7760000000000002,0.3894973287599181,0.25242397002196887
2.7800000000000002,0.5127935579768035,0.4610742677790193
2.7840000000000003,0.6588013509189361,0.615568411266848
2.7880000000000003,0.6323136712141926,0.5209160043118223
2.7920000000000003,0.31616574197768527,0.1981070668317853
2.7960000000000003,0.1285508134999439,0.15250385604828876
2.8000000000000003,0.3091421479426938,0.21590313395189326
2.8040000000000003,0.5125732547499015,0.4178574157087987
2.8080000000000003,0.3214625483223612,0.20805497828624944
2.8120000000000003,-0.0438489959356706,-0.06149852244939708
2.816,-0.057906360176522925,-0.1927955695205499
2.82,-0.08689195236954204,-0.04028494317100134
2.824,0.12531548609572477,0.06049211882881659
2.828,-0.03734714965234129,0.05461941195346539
2.832,-0.2195089212217193,-0.15377411483368358
2.836,-0.36914767806385634,-0.20266444158088265
2.84,-0.0060461918921809465,-0.06823291495967473
2.844,0.13598362069891862,0.0781278341927643
2.848,0.1265549811189532,0.07844112467878904
2.852,-0.15642811095281806,-0.13902860374311116
2.856,-0.1228627031200015,-0.08176511933366978
2.86,0.14935296519925975,0.09610596463056764
2.864,0.35999932088940095,0.28864895509849775
2.868,0.41481860328612485,0.30040574701064887
2.872,0.12579857764077737,0.03900405467147279
2.876,0.049506997299041185,0.010408871462598671
2.88,0.3045017842753485,0.18878158114485724
2.884,0.4286499288662652,0.398535784214381
2.888,0.3538685567807002,0.27059646433569207
2.892,0.1121051456114378,0.12923760421525984
2.896,0.040301098838104676,-0.008988257611516039
2.9,0.184823526697875,0.23633754714418123
2.904,0.3747801423813051,0.32342540940607506
2.908,0.38379858079490803,0.28152893870967294
2.912,0.09249028567797862,0.04047997524310579
2.916,0.06269012996187136,0.06804777787998012
2.92,0.18269010861077428,0.17649622737061177
2.924,0.42695207848896827,0.33253763044443974
2.928,0.4084616681061017,0.30745813003712696
2.932,0.02637786135728043,0.10309174752928456
2.936,0.0289675437482732,-0.046111749075053846
2.94,0.2973897580530279,0.14499226123327832
2.944,0.44678794326675386,0.3591069288413193
2.948,0.3931764592800034,0.2606317652110181
2.952,0.12622785575071221,0.04836281872431298
2.956,0.037651383241697395,0.014170849675031651
2.96,0.25536724152565154,0.1640211498600785
2.964,0.5160505917804614,0.32880034664405344
2.968,0.31203296650201645,0.29467849093286147
2.972,0.11761349798692568,0.052863265106823785
2.976,0.06362570935254695,-0.06392263536069721
2.98,0.10329548824521026,0.20857042469639056
2.984,0.4034663658074561,0.3817843184689708
2.988,0.3577561985375577,0.31256802301179487
2.992,0.1634903363364107,0.05321123111025531
2.996,0.058679049030133025,-0.09993437912971
3.0,0.19511722965611777,0.24541921511205955
3.004,0.44178905406992286,0.3585162352592341
3.008,0.39016674510421845,0.2834365461755067
3.012,0.14436007216468508,0.09845456569834317
3.016,0.04925749819517465,-0.007699190629884042
3.02,0.17253068329704577,0.2680932583579161
3.024,0.44751205330896326,0.3092616374805468
3.028,0.2613074433949494,0.27090965633839126
3.032,0.13494541698409554,0.08369899801719105
3.036,0.02548656887551082,0.023649094622385892
3.04,0.20006126591548035,0.2350317208476527
3.044,0.45713159956513355,0.34401732826689085
3.048,0.36502586023033734,0.25038251632193903
3.052,0.14205379361801793,0.0756975023616562
3.056,0.010923302811159996,0.05231812181492325
3.06,0.2846664377213248,0.18109900656106304
3.064,0.43029251342044,0.38193937744338796
3.068,0.34078395497567276,0.27578777447193586
3.072,0.14218350830057142,0.08979332440307215
3.076,0.10808383200157554,0.06594165383091097
3.08,0.1349119962818842,0.1748110367949991
3.084,0.4975150301414637,0.32491173098363807
3.088,0.4199414520150196,0.24936299726880887
3.092,0.1445491949216485,0.0727168876167668
3.096,0.11891553249729078,-0.005106122441517501
3.1,0.17505431537350896,0.24476959740388718
3.104,0.45889743989519627,0.39411316129834734
3.108,0.3299703545887584,0.25099499015151705
3.112,0.12698834675685608,0.08503608509592096
3.116,0.057763604268989965,0.06785666800047235
3.12,0.2542227333612461,0.2143948228713011
3.124,0.47590576153672975,0.3357704242122671
3.128,0.33465152363533834,0.3686743185662646
3.132,0.17528044638454696,0.06515035498742486
3.136,0.05280516325812185,-0.04548281598392144
3.14,0.23600452098212116,0.21857360323822084
3.144,0.4082836521622897,0.38864057745664476
3.148,0.37222364121287244,0.3270866015129877
3.152,0.11088991030390288,0.21380714097633563
3.156,0.04249175274283927,0.019329523972960325
3.16,0.2631877281659313,0.28735128887157285
3.164,0.43033660036054605,0.43338594880554404
3.168,0.38440049357378203,0.3064961132115476
3.172,0.07925251557440087,0.11587307460576989
3.176,0.0852093994720729,0.05591821338213768
3.18,0.13413187346431196,0.15336389175456092
3.184,0.5523448858801563,0.36186654740532176
3.188,0.407574452564068,0.339588544890959
3.192,0.07300601686801694,0.12310597337859805
3.196,0.049114487771465466,0.07237435297632953
3.2,0.1849912853333633,0.19968153066055627
3.204,0.500409719452345,0.44499353848237333
3.208,0.4140684364964492,0.2787128418613407
3.212,0.20037969713131537,0.15441420950734444
3.216,0.010883608620733683,0.07599848404919582
3.22,0.2835318730744816,0.19954138896743687
3.224,0.40695099421683273,0.3381188469331211
3.228,0.3771596769097692,0.23895909795835596
3.232,0.11003121271195981,0.009785540124130993
3.236,-0.060785034513666375,-0.05874052886702225
3.24,0.07368314521232368,0.05460195029177345
3.244,0.19970287465273967,0.27262786415608464
3.248,0.11945166161559254,0.08979603390516615
3.2520000000000002,-0.07702964912561702,-0.02628623343363269
3.2560000000000002,-0.026719497171483336,-0.08276284674303587
3.2600000000000002,0.20418864561053504,0.11636811831205787
3.2640000000000002,0.5068947036269897,0.33112628106237163
3.2680000000000002,0.5518250942807935,0.4661764683588439
3.2720000000000002,0.3911130943184304,0.26553511783045036
3.2760000000000002,0.2722715811212284,0.24039272324089758
3.2800000000000002,0.4608480269042672,0.45047225504195676
3.2840000000000003,0.6425035974965477,0.5397542546454535
3.2880000000000003,0.4824200202050683,0.36271198073477684
3.2920000000000003,0.20004958729356795,0.23435475719088436
3.2960000000000003,0.05090480109661844,-0.023234763136925133
3.3000000000000003,0.08414179649815075,0.09622040431789457
3.3040000000000003,0.386196823450795,0.23077880998366168
3.3080000000000003,0.07791663852643618,0.15255997781618114
3.3120000000000003,0.008257418203307526,-0.05917140990881829
3.3160000000000003,-0.1552732892219505,-0.12135604780478736
3.3200000000000003,0.1263282651790302,0.08632920360358974
3.3240000000000003,0.43029543484756555,0.34768524689539876
3.3280000000000003,0.4063896836339105,0.3763644064563677
3.332,0.13460626212327212,0.011967179531897645
3.336,-0.0009584589929338,0.08393437293732284
3.34,0.27863782218741545,0.18573720928867207
3.344,0.43790329467234257,0.3902292646750016
3.348,0.41171208979434204,0.3833932538667835
3.352,0.11282917129409252,0.11662196302711508
3.356,0.04499665145681861,0.024873031261737413
3.36,0.27999977048077945,0.20731930773228582
3.364,0.46200769266498865,0.34466814412440167
3.368,0.4235127785636171,0.22816270677280664
3.372,0.15819423831714738,0.06308643990476248
3.376,0.07332818445953554,0.019286971539783603
3.38,0.25964027932562883,0.2542974185040394
3.384,0.5063524539868864,0.33924335539102884
3.388,0.34134816793556866,0.34478771784572104
3.392,0.15118871327037023,0.10576745458750206
3.396,0.1259629813795463,-0.007067732661552216
3.4,-0.3534966324334059,-0.32819557977591796
3.404,-0.8780686049052507,-0.6504348267898652
3.408,-1.1803186465470494,-0.8581667553351416
3.412,-1.0689696502606232,-0.8138380681419172
3.416,-0.3846504949159318,-0.3233595911410155
3.42,0.6753093997842389,0.5465194336931025
3.424,1.5483885483777982,1.322904124149919
3.428,1.9355475273151814,1.5012078145340515
3.432,1.369489415640732,1.1955404972372032
3.436,0.723725798596219,0.645100643586692
3.44,0.09368523951006769,0.012231057297817122
3.444,-0.4443345996048322,-0.44137391829164657
3.448,-1.0328339226889431,-0.8854144518876501
3.452,-1.2854025129424862,-1.0259733170865035
3.456,-0.7777462695813909,-0.5973493758403409
3.46,0.22428356224999832,0.16518301965063686
3.464,0.4719329820535276,0.3495693573247962
3.468,0.45733838065138566,0.39086526391383236
3.472,0.1969363895729005,0.07745318318730335
3.476,0.03283052586085094,0.036051111102659426
3.48,0.22575629225319455,0.15775427611970821
3.484,0.4692207389851713,0.3449848688169377
3.488,0.4719274172704312,0.36898360882242826
3.492,0.15873997612116214,0.15799504704556022
3.496,0.07351979797194874,-0.0174838971525867
3.5,0.26357455720012446,0.2698820197795154
3.504,0.4677185674471286,0.3260894263737605
3.508,0.3679123096207745,0.3825719669601599
3.512,0.1610707753289245,0.08876186328507973
3.516,0.10190952838324345,0.024365009084172672
3.52,0.24074999159021215,0.23499351365661808
3.524,0.442204690748268,0.40249394148703554
3.528,0.46506751066056645,0.2909700260799247
3.532,0.28692466506043196,0.12401961178268542
3.536,0.09484317102070147,0.06468767354765324
3.54,0.11823239294355006,0.13137635195732478
3.544,0.3042499607525267,0.24588094158322207
3.548,0.11379560143955933,0.04424492526364726
3.552,-0.15349173258731483,-0.0922831494253599
3.556,-0.16586412532715378,-0.2733755090395241
3.56,-0.03536989727957126,-0.04936100768811082
3.564,0.16597332782323654,0.139146764568512
3.568,0.01649492512040398,-0.0013481633135166843
3.572,-0.23827817550804467,-0.14142758123607252
3.576,-0.16865757018365396,-0.22152083480556883
3.58,-0.00464892624629528,0.01692657090148307
3.584,0.23013380048336476,0.19969854265842524
3.588,0.2658108803243255,0.16168691508139452
3.592,0.08727628559055255,0.04789358510160127
3.596,0.09724979564820369,0.033809905909347994
3.6,0.25699685311868053,0.23132049426495987
3.604,0.4972961640547531,0.5490462969454644
3.608,0.5537513014192934,0.5072024538028689
3.612,0.49105758488651285,0.3065987428031503
3.616,0.4034300761192223,0.26856001285130726
3.62,0.5300459842570322,0.4384176246075803
3.624,0.8328840525173369,0.6147807956899463
3.628,0.7766193669467629,0.6124185628996086
3.632,0.5366712129230529,0.43759291829639535
3.636,0.41348847279719364,0.31077021020303236
3.64,0.6007761854680445,0.5320497001554264
3.644,0.7246623268676553,0.5588808546360884
3.648,0.5969469586548687,0.5471985901269052
3.652,0.33204991724616284,0.25623222083805436
3.656,0.12323125689018374,0.0892142116535488
3.66,0.38877205254957053,0.16720248404134996
3.664,0.3795586292959337,0.2722915014196919
3.668,0.17618782506327382,0.22591065143345027
3.672,-0.06470401224357156,-0.011634017526591121
3.676,-0.25888393689636136,-0.19718030189624206
3.68,0.00908408795520756,-0.027748991649059467
3.684,0.11194450853716677,0.11705022017230267
3.688,0.07449175834920345,0.07650342353316861
3.692,-0.27470533616716664,-0.20856272527274308
3.696,-0.3195482721301788,-0.2847435916288169
3.7,-0.03501548225830181,-0.12091372659802899
3.704,0.11658561359338881,0.22949615133843843
3.708,0.2504485783977236,0.04728717558041699
3.712,-0.005594525732086134,0.020535420824468506
3.716,-0.062240979018578696,-0.1266812575388062
3.72,0.19418573577690335,0.1283867574043996
3.724,0.4178603862401725,0.4814683230815379
3.728,0.4875072415647169,0.44182058700974647
3.732,0.1464408896013694,0.0717366164681772
3.736,0.06514300504143775,0.02566156208682193
3.74,0.296916948465352,0.24546731291481272
3.744,0.5333807283897045,0.348755594948278
3.748,0.3568897166407896,0.3049748104157103
3.7520000000000002,0.15449810528922614,0.1503969096949282
3.7560000000000002,0.21918520392252536,0.016238633591910058
3.7600000000000002,0.19772692892646876,0.29969773793139576
3.7640000000000002,0.41991169675931167,0.44844360285829316
3.7680000000000002,0.5090500678378587,0.35158933337304193
3.7720000000000002,0.17091457238134394,0.06887448342622127
3.7760000000000002,0.10045666038828742,0.061677975536531864
3.7800000000000002,0.2281490848138677,0.1950031769520067
3.7840000000000003,0.4610525553627074,0.4068966767668288
3.7880000000000003,0.3635158136984642,0.2867396124290662
3.7920000000000003,0.13987794634260733,0.06123923153670915
3.7960000000000003,0.05477487178939303,0.052671944711543406
3.8000000000000003,0.3092553133603117,0.1916140145007616
3.8040000000000003,0.5034130749963949,0.40728545934378574
3.8080000000000003,0.3813216772443334,0.3452610740565042
3.8120000000000003,0.2837046580878172,0.08246283265072647
3.8160000000000003,0.10875504385718683,0.04848758322115286
3.8200000000000003,0.2686658013213076,0.1991045593526461
3.8240000000000003,0.3809908148954573,0.4275511772569862
3.8280000000000003,0.420786978439408,0.41905081731291116
3.8320000000000003,0.15615006959609687,0.040318650067472275
3.8360000000000003,0.05486952009622962,0.1286331874444412
3.84,0.35295086154266997,0.17411387282769497
3.844,0.44248816344557246,0.4075853871272807
3.848,0.29944691966993664,0.3365906866048839
3.852,0.12392359629712786,0.18127980398796245
3.856,0.10394300333036113,0.06983266690339021
3.86,0.29025293767652605,0.24343053090823186
3.864,0.47289208176342135,0.42873568458218925
3.868,0.37433425639332585,0.2720556705606888
3.872,0.12612818886343832,0.1763606784364794
3.876,0.08784359465847454,0.09394815718267296
3.88,0.2534808297379199,0.2137465036446256
3.884,0.4383700133330187,0.3688960924718002
3.888,0.4598028929378769,0.3671489854349025
3.892,0.08779660580673808,0.11427422086203227
3.896,0.08952374539427711,0.1475860789278393
3.9,0.24955883584015376,0.2537655677948322
3.904,0.48720965772363084,0.4187826135165368
3.908,0.48686879131977334,0.35499875706375983
3.912,0.07938215773943309,0.18031043981126696
3.916,0.0483439274843298,0.04609992178949457
3.92,0.35046926674432666,0.13118088839908532
3.924,0.4308663675030378,0.42138264172486
3.928,0.3698411726372917,0.3662322613425641
3.932,0.12591768644725412,0.10597478804881488
3.936,0.19023267899439014,0.09278337342935936
3.94,0.2631453031964402,0.1638273327982518
3.944,0.4103703791218729,0.43310855537229037
3.948,0.36680864515749617,0.36015241749451843
3.952,0.11842998286087408,0.0755983676752861
3.956,0.07606516951932614,0.004713912321888461
3.96,0.33553204817829674,0.2520136334852534
3.964,0.5104703964214332,0.35207913691427856
3.968,0.43491956789172165,0.2641231066410529
3.972,0.13606633410372315,0.09608021689001367
3.976,0.18345878555746967,0.07331087649693084
3.98,0.28475415961660466,0.23452071565469237
3.984,0.44299575737181174,0.3100034929810764
3.988,0.5064465142721571,0.31084461183123185
3.992,0.2384957519515022,0.08300115658796528
3.996,0.03128630176296582,0.04506543084793025
4.0,0.2584979899726317,0.2176402658789531
4.0040000000000004,0.429723618355642,0.4391411764551736
4.008,0.529818894755312,0.2974673497046243
4.0120000000000005,0.16645922571982175,0.09668277385849848
4.016,0.14278481108667976,0.08973764284685704
4.0200000000000005,0.2281139588262163,0.296608755866838
4.024,0.45775054793957026,0.417105551235358
4.0280000000000005,0.35807639300369354,0.36908416795897653
4.032,0.13548675815824077,0.19893289725390972
4.0360000000000005,0.0957906314186875,0.16035767768891068
4.04,0.27449923871708964,0.26349537637914405
4.0440000000000005,0.4853718463914422,0.36630972345348056
4.048,0.4277631959606272,0.32470608912744253
4.0520000000000005,0.2351378917352971,0.14366388446745326
4.056,0.113848225955442,0.11834550756398181
4.0600000000000005,0.283936389652773,0.18506365567449543
4.064,0.5309341280336904,0.4587695322787242
4.0680000000000005,0.44180772449345673,0.3030337145469565
4.072,0.18114191035524363,0.1049919180463785
4.0760000000000005,0.15621363861147453,0.006677438249710177
4.08,0.2864436521930162,0.15797184908558515
4.0840000000000005,0.47957761652012193,0.41692454188148204
4.088,0.3543110658301768,0.3454773183270954
4.0920000000000005,0.08843815734870626,0.05379385114408983
4.096,-0.02796401881998467,-0.06346880600263413
4.1,0.015135648983206157,0.12306300998832118
4.104,0.22464143152216837,0.2197401265674351
4.108,0.1640620749821704,0.21658733933740792
4.112,-0.00042716203538304374,-0.02481393607597955
4.116,0.05681372558155606,-0.008804190924212807
4.12,0.2224100510573943,0.2868663503772585
4.124,0.5633406397612051,0.3781375827318315
4.128,0.5403883048611906,0.4156078467343526
4.132,0.3861507936577394,0.256934240281518
4.136,0.3886558265422402,0.24221739462550776
4.14,0.5124561208554482,0.4401147681227295
4.144,0.7281767918550409,0.5748509637955492
4.148,0.5518245715486055,0.39468794845607724
4.152,0.15796514993175612,0.10798006141288737
4.156,0.01208232586210016,-0.0344730323548462
4.16,0.1083287018377738,0.16196985242905215
4.164,0.18470223639144928,0.1893859625112333
4.168,0.20446802678151818,0.12075411590103385
4.172,-0.01580040922871563,0.028972440133852514
4.176,-0.060028321031014104,-0.06394636143464366
4.18,0.17614485110352213,0.2170112722584248
4.184,0.5449245194422527,0.42974115626337406
4.188,0.3671150451317693,0.3681167966804087
4.192,0.08943129991465107,0.1991989155239846
4.196,0.13324369834715521,0.04047097010658054
4.2,0.28328935737258,0.2667467929251118
4.204,0.484228016112209,0.42622527292768747
4.208,0.38026488150834786,0.387892563390892
4.212,0.14740414254201806,0.23556979883342732
4.216,0.08535106804738339,0.03956020509291938
4.22,0.29182642328956204,0.26778535106027224
4.224,0.49748479847781546,0.40905531307910203
4.228,0.45373834422904447,0.370806903534184
4.232,0.18114362532107292,0.14164068661754137
4.236,0.054030843420360464,0.06466989545676173
4.24,0.2838994076414065,0.23173641810968837
4.244,0.5393502446068271,0.39280724615635126
4.248,0.5054864676157598,0.40400940830874477
4.252,0.10563507481137072,0.17903715627300917
4.256,-0.19282230521122698,-0.30419962206539397
4.26,-0.804779699375732,-0.6988584024567952
4.264,-0.9658404182317946,-0.7855886931577366
4.268,-0.9541260268372493,-0.6875402026428283
4.272,-0.5026422102504781,-0.3894182071621917
4.276,0.22797637241697305,0.22174438946264374
4.28,1.166627290475029,1.0627053946368874
4.284,2.0114048802670883,1.60111425813533
4.288,1.8294469335119694,1.4652777564627641
4.292,0.9998438432708393,0.7842407132309956
4.296,0.10521559530552307,0.025852465318235776
4.3,-0.4416846834841196,-0.3627717602187328
4.304,-0.9426527529679928,-0.6827861318197835
4.308,-1.0204520924300022,-0.8180891954258819
4.312,-0.9426323367826607,-0.7011509937892975
4.316,0.09544801975233473,0.09011009132857212
4.32,0.3337509538170457,0.1699920028768676
4.324,0.4713683171670551,0.43686403499148435
4.328,0.4581040701299686,0.4032064578371355
4.332,0.1569622408284649,0.10966851602249604
4.336,0.10734919942959112,0.11873175818973536
4.34,0.3320840123353066,0.21422182855247512
4.344,0.4808940557504262,0.3303278444935212
4.348,0.33830999959139596,0.33540095720209273
4.352,0.20654793995204168,0.06933613993220525
4.356,0.09118955635415289,0.061130251500599524
4.36,0.2984412083787927,0.29483527857366354
4.364,0.5105227795890682,0.4167968809830268
4.368,0.36555683504135295,0.3246078895170899
4.372,0.14416873423878163,0.17396030914742008
4.376,0.08670872851027331,0.10660034672488608
4.38,0.3531141764476226,0.2648901475175624
4.384,0.4217637860187758,0.36668910332022475
4.388,0.479556599542837,0.42692351009720353
4.392,0.20873842303570286,0.195037405771365
4.396,0.04530873381339687,0.06541886265164097
4.4,0.152756450864773,0.11958249668041847
4.404,0.2620815396190972,0.36018726752777097
4.408,0.1291886781440749,0.20571925446953424
4.412,-0.054950825543608375,-0.09301201629042691
4.416,-0.2358753610566869,-0.18509533885935192
4.42,-0.11604565950468801,-0.04682018547203331
4.424,0.08680906195824803,0.0538673757658314
4.428,0.13235138598079918,0.043498166588522506
4.432,-0.19441491821576395,-0.10547926472677716
4.436,-0.17960963836171104,-0.17312646933823284
4.44,0.17345608586758057,0.0675177465793749
4.444,0.23575215949785971,0.23589203816365426
4.448,0.36193066824148,0.28474864457088866
4.452,0.09598365285290128,0.18319946528263015
4.456,0.17772063305724864,0.05682096676037198
4.46,0.4297071701876894,0.3296488499411162
4.464,0.6835051671854743,0.5657104937441529
4.468,0.6413805655035982,0.4997027610524833
4.472,0.3795448758690101,0.3703696717340292
4.476,0.4119936392248956,0.3010195259669214
4.48,0.5928115607934551,0.46027140212343876
4.484,0.7981327468878225,0.7677579722064442
4.488,0.892860423991154,0.6567367250739732
4.492,0.5515234392577291,0.43245092294786525
4.496,0.3629806673273132,0.30657271227317007
4.5,0.6094177574235032,0.4358414296007765
4.5040000000000004,0.6899453552016155,0.5812616644553585
4.508,0.5128909612751841,0.5047950907297968
4.5120000000000005,0.13905892186411603,0.24604843566295365
4.516,0.08746492244143295,0.17312831662773123
4.5200000000000005,0.2661287625913926,0.14933845866681664
4.524,0.2781029586003453,0.269709845929042
4.5280000000000005,0.13619194602764875,0.20221113991446601
4.532,-0.14572176308128626,-0.03736930397394887
4.5360000000000005,-0.16775940717343746,-0.17378309974634656
4.54,0.0035632191841266717,0.03436627638677447
4.5440000000000005,0.16591860885472948,0.044821521700019726
4.548,0.10622336654128756,0.01973755479883349
4.5520000000000005,-0.24611701193064123,-0.08364896538988444
4.556,-0.23019006071725528,-0.18865809101490433
4.5600000000000005,0.024149480057429458,-0.04293167682136053
4.564,0.19079328777707247,0.22204461027641176
4.5680000000000005,0.1905384376208558,0.16768754760799734
4.572,0.04720567195165698,0.04445980434128806
4.5760000000000005,0.11496114435003346,0.05933930522712266
4.58,0.3857356784123248,0.14258257964594967
4.5840000000000005,0.5301461887488981,0.4531103243339925
4.588,0.41064223666424016,0.3179647784987808
4.5920000000000005,0.12290515927019761,0.10593302405278715
4.596,0.12428728522647028,0.13197399215882688
4.6000000000000005,0.274596429078099,0.24893533190486694
4.604,0.49507490564935214,0.45070261850995974
4.6080000000000005,0.42200832030680674,0.3761860586376491
4.612,0.16504320834920713,0.11583248463795076
4.616,0.06519848067713463,0.0769987943524294
4.62,0.19017990520403713,0.21421096563584816
4.624,0.3417453472434895,0.4582280829453536
4.628,0.5166957086371151,0.4373553834073036
4.632,0.19589506557436936,0.05999661039908065
4.636,0.17266435174005818,0.14150033879050103
4.64,0.2556995958196223,0.22661163992468403
4.644,0.5250840687521026,0.4245193931365076
4.648,0.43440902220730854,0.3578843163036334
4.652,0.13888359962631164,0.1432612284075556
4.656,0.005788770065824983,0.06748702684806877
4.66,0.28943601102312777,0.2770071584244756
4.664,0.44395525677990927,0.3947085559753467
4.668,0.46292138399549343,0.3553941619348483
4.672,0.12411621767994044,0.05501481288982621
4.676,0.20527601828919312,0.07531996881393926
4.68,0.36651820894789,0.22035810563778452
4.684,0.5156383512023108,0.3872500294341009
4.688,0.32298230107837267,0.38622855600059597
4.692,0.11960037022525116,0.10206799059152817
4.696,0.04395948963435431,0.07913534857774705
4.7,0.3851891514916644,0.22019663586192545
4.704,0.37551933536420795,0.44683328900433233
4.708,0.3751930899250449,0.3666577759041449
4.712,0.29060743878709266,0.21897124623974512
4.716,0.11631573569252866,0.1294870897880039
4.72,0.33662572258784734,0.23612701523990234
4.724,0.5180651141630136,0.3565737836946648
4.728,0.38119825842791777,0.33237205296012534
4.732,0.2900801474764809,0.14109620167766554
4.736,0.1029017650917611,0.14725498721852823
4.74,0.3054329467145839,0.20622837701814833
4.744,0.4596117702617353,0.42425934856768016
4.748,0.4114810174117669,0.36850875944586015
4.752,0.16529025897142663,0.2174072057628149
4.756,0.08392490477528518,0.06188651620887723
4.76,0.27110514062331775,0.19349938025717292
4.764,0.41586779065225704,0.4199561026373756
4.768,0.5000094563464228,0.26952312820477325
4.772,0.18113313120889102,0.08373460408781401
4.776,0.08862367372054691,0.11767208483002739
4.78,0.2773642001154319,0.2841337019822352
4.784,0.4475727760477448,0.38472409372973365
4.788,0.43570427690196795,0.32666147036905374
4.792,0.0604570682958078,0.14712209480999103
4.796,0.06192267013595745,0.12947437707693693
4.8,0.23324977313832163,0.2471930970302514
4.804,0.5196749352639535,0.41127206450980486
4.808,0.4582852753788158,0.2934455411206495
4.812,0.22324597606446453,0.09583869289735009
4.816,0.16505939056190846,0.05429998938182668
4.82,0.3632561303078039,0.2276940497989916
4.824,0.5205569474350064,0.4196967509650688
4.828,0.4008872273878774,0.2975083631536173
4.832,0.2279737484863874,0.15409916687911113
4.836,0.1597941920444047,0.039597369342496885
4.84,0.26915438618062937,0.23685251671840893
4.844,0.5721002776871267,0.43811060337128643
4.848,0.4471528453366054,0.3770457721210643
4.852,0.19202924815121836,0.1321374314303673
4.856,0.14089240362048183,0.1119996627606881
4.86,0.34443322997557557,0.1950037014882836
4.864,0.5667908716890259,0.37712514132722863
4.868,0.4045508289782076,0.32107589340337106
4.872,0.15211269323495016,0.15475918164705227
4.876,0.09489283339916343,0.09920962405548966
4.88,0.24694820396857042,0.2644197011799925
4.884,0.4433276521573657,0.4594568417453444
4.888,0.40850366009738437,0.29626975415802764
4.892,0.11550616196622022,0.1560925895555939
4.896,0.10118725523081186,0.011042792033951386
4.9,0.29036912639125806,0.16537984967553554
4.904,0.49642808569340463,0.3664740294381006
4.908,0.40171937904267535,0.35501744424568243
4.912,0.11196811322646295,0.1721769483863792
4.916,0.05538367131896329,0.016851670480750994
4.92,0.2719787752874006,0.2611909681542278
4.924,0.45672059184575153,0.4217009203974332
4.928,0.44984710573287146,0.28969404969869733
4.932,0.19909380236020152,0.05927552119549717
4.936,0.04965208739918681,0.10262937550753573
4.94,0.19117703126277383,0.2533047433706801
4.944,0.5461533613594344,0.4885402828776473
4.948,0.3692749763723519,0.312261821908131
4.952,0.09463025731470305,0.02041666046091828
4.956,-0.10679175878380752,-0.134142664646087
4.96,0.0643492236518878,0.08804488100817404
4.964,0.24254863505237162,0.1891279982426098
4.968,0.2928140056181734,0.1445547694676778
4.972,0.04850498316594765,0.1276532776043231
4.976,0.17016034988556217,0.03246333538289304
4.98,0.4418559976211536,0.2607107428362037
4.984,0.6257139556534845,0.5174750007514456
4.988,0.6837065181061535,0.5328390916701998
4.992,0.4294175929695681,0.3228243517212986
4.996,0.35024537670475225,0.23874022596853894
5.0,0.5553289887608227,0.3914236062366212
5.0040000000000004,0.7004879604381261,0.4550488258379793
5.008,0.35402073757281116,0.3779862083226685
5.0120000000000005,0.13444782314558357,0.05123060838688982
5.016,-0.03867489839128138,-0.09727384069148888
5.0200000000000005,0.17950995076799028,0.1004361934642771
5.024,0.194961487824948,0.13596615621791444
5.0280000000000005,0.22353777165903635,0.1707885306905306
5.032,-0.0003935424004543626,-0.04149940279974815
5.0360000000000005,0.046879653049897156,-0.0140712554617347
5.04,0.2793995171643341,0.22537898764165862
5.0440000000000005,0.5659767267197243,0.3243741535656025
5.048,0.4428316396387146,0.37537976660806666
5.0520000000000005,0.17383663684968503,0.13241466814929886
5.056,0.05572976425654311,0.05427411248145024
5.0600000000000005,0.30090264681587836,0.30583150936830267
5.064,0.4764529835095646,0.37693847675647413
5.0680000000000005,0.4583919221534617,0.36242243126511253
5.072,0.15223063965863515,0.12933132602432793
5.0760000000000005,0.04168629745372879,0.048178424710413975
5.08,0.3078939785326644,0.19624522263315997
5.0840000000000005,0.5924483713237318,0.3457074385473933
5.088,0.5366078360838222,0.41484105603095844
5.0920000000000005,0.19261252293770592,0.11411057818760052
5.096,0.14990169354480648,0.0606093873917036
5.1000000000000005,0.23585894910356772,0.17889891555490922
5.104,0.44627077747078164,0.46048310973140866
5.1080000000000005,0.40438050204541215,0.3158791951566416
5.112,0.21384538493107053,0.09075388659640911
5.1160000000000005,-0.7615672109670868,-0.7398588090857493
5.12,-1.1940284103552101,-0.9377544383043618
5.124,-0.9405463390900186,-0.7221264333002593
5.128,-0.4570139624902429,-0.39008299107710054
5.132,0.10649617728627328,0.15472425687240665
5.136,0.9211930257143253,0.6210653686757224
5.14,1.6096022721869092,1.3234087893058064
5.144,1.9834593816848654,1.6077270024656307
5.148,1.5339223326647082,1.2143408750963198
5.152,0.4293394248589416,0.36562711715334845
5.156,-0.47969106429992503,-0.3600818151828613
5.16,-1.0669528399921608,-0.7430309569212423
5.164,-1.0450249498132287,-0.7791335391708037
5.168,-0.854604987498117,-0.6147120588688512
5.172,-0.32597553638387494,-0.2639527606917911
5.176,-0.0014194464907014842,0.13271021206799163
5.18,0.34907807533250834,0.22545286776036885
5.184,0.5341848046509639,0.3931148146783497
5.188,0.4741256365654013,0.4007917622498101
5.192,0.2807143000072544,0.1229107475302333
5.196,0.04393816862925205,0.02099329242527464
5.2,0.3410034921530064,0.22407315295616667
5.204,0.5914802820288491,0.4392620710736247
5.208,0.4204437268238364,0.3155354461137711
5.212,0.17982628948343707,0.10659305831722016
5.216,0.034995375474066004,0.1316372766802273
5.22,0.26626686529776616,0.20458900807104793
5.224,0.44921923540744124,0.4141177356771877
5.228,0.4068907659075589,0.34452323245287075
5.232,0.16807542604608308,0.08693345795156543
5.236,0.038072159786969664,0.11865044061016086
5.24,0.2681419053566363,0.29012093663795646
5.244,0.6172714805186427,0.45227495445430244
5.248,0.4340426626950289,0.31938210228544195
5.252,0.07657558410100199,0.07531882509608358
5.256,0.012742148532218979,0.009834706505740753
5.26,0.12994397281596426,0.10924575749375487
5.264,0.19068374359881307,0.2159036815921989
5.268,0.20234143828135193,0.10455083281147431
5.272,-0.15213954445925357,-0.16086046296879725
5.276,-0.2476882609403773,-0.2573188791378724
5.28,-0.147609365860035,-0.05067563327287118
5.284,0.1159540613895795,0.05767386504706538
5.288,0.07962397752160263,0.07074851143005922
5.292,-0.10361740769310052,-0.047506405285066985
5.296,-0.10686754286406831,-0.20545722915654363
5.3,0.11734394428952474,0.09693455956000523
5.304,0.2621575927603875,0.25463023027425813
5.308,0.3243331971536874,0.2523478242267501
5.312,0.17417197087195146,0.08247940560753578
5.316,0.17030365941491785,0.15815204124372367
5.32,0.42363115594144474,0.3032205589232352
5.324,0.6589099165705948,0.6831353377319926
5.328,0.5604013120049838,0.5957211588731128
5.332,0.4991432060971044,0.29621027195886956
5.336,0.40766985162508473,0.3055660416273538
5.34,0.5680586491089326,0.6021830436243641
5.344,0.8318635801239521,0.7360675971562219
5.348,0.8277207448840674,0.6160292362361883
5.352,0.595012788916548,0.41760494206316773
5.356,0.49146942958848505,0.2963640570281956
5.36,0.4351711878482944,0.3776029245918035
5.364,0.6798959597327081,0.5344819055473429
5.368,0.5009869351600972,0.44522325605400553
5.372,0.261483037136992,0.21518388237563468
5.376,0.09080273545273304,0.018575693173199757
5.38,0.2536349330828839,0.072183263217797
5.384,0.3152603306356031,0.3126720452266544
5.388,0.21750983855570202,0.19361074270233464
5.392,-0.09481011754651011,-0.1273519498168051
5.396,-0.24502256768278674,-0.2012120712152666
5.4,-0.055734540635566474,-0.0883863063527419
5.404,0.19627530392400155,0.12698011820627889
5.408,0.10411312281687204,0.017737944161659306
5.412,-0.1281882392203602,-0.1541110428869593
5.416,-0.19734882317549376,-0.1298455060970326
5.42,0.005697840347036055,-0.03321261645992474
5.424,0.20178724408968793,0.2441411375950296
5.428,0.2608863199734411,0.12771061407218487
5.432,0.10482228847083376,0.07576230383986854
5.436,0.046890204631587225,0.024808662319891758
5.44,0.26598229575203586,0.2765789804412029
5.444,0.5537339936553995,0.353482773944138
5.448,0.4410383129943323,0.4178166835240463
5.452,0.16911895054064072,0.19676301847229416
5.456,0.15030299925425605,0.03977665442082968
5.46,0.33735862687000706,0.19755546246283917
5.464,0.5562124421722677,0.4019750426007685
5.468,0.3464633363072619,0.2578299185208713
5.472,0.21413768501952607,0.1389268010057441
5.476,0.12731186277864834,0.0509921259597555
5.48,0.3107887699531161,0.2407795033140407
5.484,0.47882586759602397,0.4391281791621822
5.488,0.4433932102881144,0.4206512970640447
5.492,0.163787091259888,0.13349419997750434
5.496,0.07203664933977874,0.06225105773216494
5.5,0.29006142050073164,0.2043169208238655
5.5040000000000004,0.4399873664792244,0.38361919613548356
5.508,0.5043889726873054,0.32902458304037185
5.5120000000000005,0.17388445978053618,0.09343228593543401
5.516,0.08429009965133276,0.0728743700659689
5.5200000000000005,0.18499342810749558,0.3027349636934424
5.524,0.5006967880445796,0.371896643485838
5.5280000000000005,0.38101736889556936,0.3551683448888632
5.532,0.29262741141003057,0.21001076525435852
5.5360000000000005,0.05009548409786918,0.10593312167016718
5.54,0.3595005496249837,0.18226896313923588
5.5440000000000005,0.5486107803039569,0.431630844340211
5.548,0.40066634066167084,0.3177260825390079
5.5520000000000005,0.28965630999255415,0.09935874952006997
5.556,0.04163946122181285,0.05875379621183844
5.5600000000000005,0.3729225102993686,0.22031660638192274
5.564,0.34444438263686317,0.40809365691393507
5.5680000000000005,0.401894677196835,0.3198920513212145
5.572,0.1803614200635273,0.11524791506492121
5.5760000000000005,0.08586702930446422,0.0008327400473407132
5.58,0.30778077273546955,0.217829929009921
5.5840000000000005,0.5140604677667338,0.46174803679816245
5.588,0.37596210814037667,0.30121613850533374
5.5920000000000005,0.1050823173634179,0.19077045561327707
5.596,0.1175179772267817,0.057367585781254574
5.6000000000000005,0.250234477313258,0.2317864614461058
5.604,0.4937358709086889,0.3878970977513673
5.6080000000000005,0.3649383309249275,0.32226472883463475
5.612,0.17855520979501255,0.20436844117235858
5.6160000000000005,0.10086669443881127,0.06476643551587356
5.62,0.309094350836532,0.26743150989508224
5.6240000000000006,0.503261054462273,0.34411149335353985
5.628,0.4851273952394856,0.34445257626881765
5.632,0.22146996767474772,0.12037398508655202
5.636,0.17215131313589138,0.07017000581106016
5.64,0.2923355687115934,0.19933675736597842
5.644,0.5719902680931351,0.4802555601376994
5.648,0.40699606862371507,0.28748890988063275
5.652,0.14097607625550476,0.10858963733269456
5.656,0.11609338663991624,0.03676059955620204
5.66,0.26454792041342173,0.2150465382318377
5.664,0.5382531516637036,0.3849314213501166
5.668,0.40111696839465066,0.32062055037354226
5.672,0.27116732279449063,0.180230021022508
5.676,0.0660795582304693,0.13564190432441325
5.68,0.3376259904868441,0.2535072915757123
5.684,0.40126259379746065,0.42114042363127513
5.688,0.42291995585176534,0.35524053985546217
5.692,0.17929695036288848,0.1659668613372441
5.696,0.09705927733892461,0.15007644363544434
5.7,0.32800527203868424,0.23574080219059118
5.704,0.4527039400680618,0.43208885258280894
5.708,0.34551650059646144,0.2886971809592298
5.712,0.1660987031676627,0.10454103039264691
5.716,0.07518791933440885,0.08406738187437184
5.72,0.23831695779362133,0.24997302685461262
5.724,0.5788867620603895,0.3884192015209775
5.728,0.39574406453148053,0.3893368261340105
5.732,0.15572435730608533,0.1490279488174876
5.736,0.06036545680575834,0.05285138402864954
5.74,0.32003255625017296,0.26941974104664296
5.744,0.4618686037078156,0.47688293503356854
5.748,0.4190643545396659,0.32439731002118877
5.752,0.24757604673091166,0.20020208921735777
5.756,0.10338375844191326,0.029978476028604893
5.76,0.30988883521552235,0.22077702201312732
5.764,0.5029487773059942,0.3651417937772278
5.768,0.43585705811363346,0.34812458396808643
5.772,0.19790849706690708,0.1351074280964096
5.776,0.006525226720333288,0.0924698519275638
5.78,0.24994453289676705,0.2241756519309059
5.784,0.4403681280657927,0.4270926860685973
5.788,0.436882263046817,0.30331127515732603
5.792,0.14882090952714905,0.13458253514147792
5.796,0.0010060964005970952,0.05137213827621136
5.8,0.2628716820529425,0.22147535894855366
5.804,0.42575236386217463,0.3664173296528135
5.808,0.19245068849053215,0.25953694258879006
5.812,0.010030905028406895,0.0014371651604931993
5.816,-0.10058806766340411,-0.10652147831535286
5.82,0.0667632449201697,0.01416888469790853
5.824,0.23574698394323393,0.3026102254913371
5.828,0.17973406250959711,0.20673943954293303
5.832,0.09711181960080538,0.09848211815795069
5.836,0.16453070568985662,0.05410575212853599
5.84,0.45972182087883673,0.31796449295377466
5.844,0.7439153787377302,0.5932515820730818
5.848,0.6631727120708139,0.4564602929415784
5.852,0.40208646757970085,0.3687820239810563
5.856,0.337495388764513,0.2134126253642552
5.86,0.4857893309801831,0.3561548860414008
5.864,0.46267762840193283,0.4633341089601783
5.868,0.4186880032804619,0.2658242113637686
5.872,0.06226855480516798,-0.02386329835825759
5.876,-0.037053438599890395,-0.10461244317463597
5.88,0.061384354338526084,0.1059436610228173
5.884,0.2799613057698909,0.2397003938786507
5.888,0.25763149452247003,0.16430894305459193
5.892,0.10624951531535046,-0.005509197808213982
5.896,0.025263182754376022,-0.043512447092132533
5.9,0.281436778440794,0.21370769238288873
5.904,0.5144405607629656,0.48742182017125835
5.908,0.48825548176729827,0.3775470141608245
5.912,0.16660911206218626,0.15675823241891404
5.916,0.13112907859357714,0.0748721824161247
5.92,0.13721196825933735,0.25791239016936185
5.924,0.4778272332717217,0.40147604296946904
5.928,0.4186364681078593,0.2411067638983587
5.932,0.15328702664435914,0.16048349999299466
5.936,0.07342778446717987,0.011816292011623916
5.94,0.2363129890760385,0.2050956269876922
5.944,0.49281160012578545,0.394404582220339
5.948,0.43557736771838496,0.3505089246330284
5.952,0.14313608518110962,0.08796809684836537
5.956,0.11530017553306332,0.010412040684440502
5.96,0.3931790403248651,0.2526282090646201
5.964,0.5235334981414186,0.4206949806588692
5.968,0.3595490993706369,0.2964941109068931
5.972,-0.6421499992042426,-0.46910449226505696
5.976,-1.2736850351422924,-0.9870041995996774
5.98,-1.160586421717855,-0.9256486933010212
5.984,-0.6203925752009283,-0.49374334923565816
5.988,0.1097659265523203,0.07873018228434946
5.992,0.7459614911412442,0.5847293823142601
5.996,1.3243330605505572,1.1069489464376723
6.0,1.8507673478912345,1.4046647851202698
6.0040000000000004,1.7104456962671022,1.4286479566983996
6.008,0.9548206760329228,0.8395320162318646
6.0120000000000005,-0.1582011103530063,-0.137272664758153
6.016,-0.9861212510876888,-0.9418321489798646
6.0200000000000005,-1.1951187103760839,-0.9635103568201404
6.024,-0.8445685711249195,-0.6920687608856462
6.0280000000000005,-0.37263203761756325,-0.25803089070844953
6.032,0.2691787218183245,0.10876750424072673
6.0360000000000005,0.0864231310095398,0.07152786578448467
6.04,0.3329667382714372,0.18586324850964803
6.0440000000000005,0.4637833248703382,0.4369599734256293
6.048,0.3790174180965425,0.3296106141280189
6.0520000000000005,0.10999268024888358,0.1158443975764332
6.056,0.16021316068104843,-0.010380675722693772
6.0600000000000005,0.2431795411938955,0.2175376626067535
6.064,0.5305352005799402,0.44862742480299195
6.0680000000000005,0.3550212028109333,0.26260818639146216
6.072,0.17146497437947578,0.14417871443126842
6.0760000000000005,0.10500109795592652,0.0706414646687491
6.08,0.24624770438024057,0.20741783289153407
6.0840000000000005,0.49293158603332565,0.42203477794043287
6.088,0.30134976853058637,0.3761801492354002
6.0920000000000005,0.21877459328080395,0.07477216588893855
6.096,0.11669404549357933,0.08569383262226443
6.1000000000000005,0.3230635414617255,0.265382930817345
6.104,0.549200135948885,0.44582727772049435
6.1080000000000005,0.31483129350550243,0.23127511874335555
6.112,0.07522981404570632,0.00656842435050763
6.1160000000000005,-0.0999282491209818,-0.04662589851249269
6.12,-0.0369438778868407,-0.011803420817552812
6.1240000000000006,0.2609677398133902,0.17911191414351618
6.128,-0.019870805984845516,0.014234950323963741
6.132000000000001,-0.18903523900012048,-0.1623086792887827
6.136,-0.27629709586244533,-0.24001756715577593
6.140000000000001,-0.09792228707581419,-0.09288117119024467
6.144,0.18476934216546131,0.16155260040193226
6.148,0.14745019624229255,0.02249327442014802
6.152,-0.15739864449688173,-0.09753966966862149
6.156,-0.0839550291926818,-0.10608204837303759
6.16,0.16437291422409805,0.20114880906157778
6.164,0.38480155770728697,0.2789084122733047
6.168,0.4699103321566067,0.31751267795342947
6.172,0.27049707470261314,0.17882061429903373
6.176,0.27097520631973837,0.11660300321706046
6.18,0.4457245604096758,0.451723147651925
6.184,0.7263539942783769,0.6061977909765817
6.188,0.662686817638246,0.5787509273366778
6.192,0.4972391637812217,0.33689803254159606
6.196,0.3761608904570543,0.3117149944591257
6.2,0.6486968281929134,0.5311639780550671
6.204,0.8297111037723042,0.6758155012468744
6.208,0.7125638817743689,0.6075233997331638
6.212,0.5089153361458046,0.34853301230575934
6.216,0.3278395800339286,0.30065733843613984
6.22,0.5027242889653123,0.35977018591905946
6.224,0.6436391169048069,0.5809284110118437
6.228,0.41607356006878754,0.3552196783191029
6.232,0.17515800630259892,0.05650870347478153
6.236,-0.04067885128046088,-0.00500820980860826
6.24,0.1562561478286961,0.09128050321727892
6.244,0.1758765292072926,0.270952415446438
6.248,0.2194150116482869,0.057408169605012146
6.252,-0.0991651730707998,-0.14658709205229023
6.256,-0.33142004623991517,-0.17678347364733002
6.26,-0.03796775872307595,-0.09277764313439696
6.264,0.07781694666043565,0.1026150341687762
6.268,0.05008345771199475,0.011548756946895115
6.272,-0.10586106611457062,-0.17769989666120356
6.276,-0.24068225349114825,-0.22130993098633409
6.28,0.08849144034567266,0.008910365160179207
6.284,0.311131541923428,0.252278477299052
6.288,0.27227719610217704,0.2597849839813506
6.292,0.10333584486743244,0.13004647963345897
6.296,0.21162619984598896,0.06582895074828571
6.3,0.1854742991062568,0.2720952708031863
6.304,0.49086979528634633,0.40483194295415315
6.308,0.37604873884793083,0.33388573407372013
6.312,0.17683996453018194,0.11175617573803205
6.316,0.15162799582674089,0.07955504099515631
6.32,0.2601822033655119,0.24880731257479075
6.324,0.49101716590134015,0.3441395644683456
6.328,0.38501433960175774,0.3293034954887285
6.332,0.26312206359370666,0.11079789541914387
6.336,0.07315026809664997,0.07627221010461226
6.34,0.3076492359296062,0.2120211510029934
6.344,0.42084115143698114,0.37164043450402773
6.348,0.3628760673113088,0.34899921035557646
6.352,0.20605879666404092,0.1481809616135512
6.356,0.09082798757712103,0.05185552446760027
6.36,0.2893339995560383,0.23188038482352435
6.364,0.48594449033393333,0.3677921195955832
6.368,0.34202301914650257,0.34006200010987103
6.372,0.19090658194744636,0.050343220954023105
6.376,0.06011452068490811,0.05555074030324314
6.38,0.26426795218830623,0.22735536660039943
6.384,0.35347557032844945,0.31983531263831255
6.388,0.4012991610598881,0.3818435046069739
6.392,0.12148951504793506,0.18133556626224026
6.396,0.11541177637954336,0.04402940466464448
6.4,0.20916646748432027,0.2482789246802632
6.404,0.3439653805521141,0.37892475494753836
6.408,0.4552664004480831,0.30841595768294444
6.412,0.1506124388993304,0.10934861071561579
6.416,0.12449017664262231,0.01236238888200717
6.42,0.26964144921046757,0.23016534318316037
6.424,0.43469937789855717,0.39269868391701357
6.428,0.3004456540771114,0.3375873906675878
6.432,0.17565229465655494,0.1367502532927763
6.436,0.09629961264463355,0.06871150061666609
6.44,0.23873982292964824,0.17367996702212754
6.444,0.4411361355646362,0.3748512165522851
6.448,0.3311526359313601,0.33821840065861414
6.452,0.10333241177452403,0.14007598332422297
6.456,0.08100845641472994,0.08888123630220199
6.46,0.22722513059785188,0.26146869102752196
6.464,0.4804610183914025,0.31476473038448805
6.468,0.2817377328986731,0.28550677392781854
6.472,0.2157244862705366,0.13221215403536868
6.476,0.08314397146181968,-0.014912662519764322
6.48,0.28123453636874785,0.1721510737721285
6.484,0.5204450978109258,0.3134615475582753
6.488,0.40405650806224314,0.3598289534115887
6.492,0.14325165366647374,0.09486319564191054
6.496,0.10395158378759277,0.11398056531701672
6.5,0.17733473155419377,0.2564148015541427
6.5040000000000004,0.4517985434358759,0.377185722203591
6.508,0.42205857493289045,0.3102796802409111
6.5120000000000005,0.15292321347750895,0.09241327728644905
6.516,0.008676199819165994,0.01172959063012817
6.5200000000000005,0.3134012852379063,0.2269711851587266
6.524,0.3965591466946476,0.4207821612470328
6.5280000000000005,0.37063610533556124,0.3876030182867077
6.532,0.1253726815182358,0.036144394453302156
6.5360000000000005,0.09114020758076238,0.027559960415869354
6.54,0.2437984906331638,0.2050581538243253
6.5440000000000005,0.44648192852814744,0.45949007375300527
6.548,0.3982330898891471,0.3606877781565649
6.5520000000000005,0.10503735553794061,0.11811718835599357
6.556,0.07862172046247243,0.007910940434119253
6.5600000000000005,0.21824225932025967,0.2030403027438498
6.564,0.45782180007321693,0.45981340568676643
6.5680000000000005,0.4248116791756652,0.4261947331354989
6.572,0.2124746002587058,0.11812350311425175
6.5760000000000005,0.12694418057541432,0.1116342359710305
6.58,0.2735017167907058,0.17795715345295615
6.5840000000000005,0.47570410389196915,0.3408657941449411
6.588,0.4601218793739783,0.401727529648364
6.5920000000000005,0.19297760771351571,0.12271552600678136
6.596,0.026380107808787294,0.05971813406253762
6.6000000000000005,0.27873121452358707,0.22820272030750274
6.604,0.39135224212265673,0.3123819355129973
6.6080000000000005,0.37563598202038184,0.34490592160170314
6.612,0.14834097129124038,0.17675641497753936
6.6160000000000005,0.1384242308920638,0.05190635725321961
6.62,0.23661041042650394,0.21381326112279708
6.6240000000000006,0.415993645802872,0.33777337471215174
6.628,0.3033591713213767,0.3002596352557499
6.632000000000001,0.15106290560151805,0.07015924825746916
6.636,0.009380582644684506,0.013262692333822025
6.640000000000001,0.18519438141032568,0.23070778199975375
6.644,0.43430848863984683,0.3588138893458447
6.648000000000001,0.3699875311911502,0.34581553193863956
6.652,0.1299150964680005,0.11595894879713341
6.656000000000001,0.004889749383356151,0.0010015814582010132
6.66,0.329511156674677,0.2177516076880657
6.664,0.4332383081128669,0.26594419152237075
6.668,0.18197023911586108,0.20457853634898035
6.672,-0.037426398189558105,-0.15991949256334412
6.676,-0.19418718451129677,-0.11903339548676031
6.68,0.06988381873814237,0.014377730855385915
6.684,0.2690821617959798,0.19790525928178732
6.688,0.31713163338905137,0.2577936622053043
6.692,0.11448183598626369,0.18628886303181924
6.696,0.12511003787224861,0.08779757288618162
6.7,0.494886128847897,0.3703302847053518
6.704,0.7724118812580061,0.5724608259873966
6.708,0.5861001615174471,0.4617070196556749
6.712,0.31395906328260637,0.2385723586731916
6.716,0.23127668400610368,0.18904816275891576
6.72,0.22017646843593375,0.2528942598210243
6.724,0.4053944368023799,0.34858273790958766
6.728,0.22735796091289998,0.21040585086408778
6.732,0.007708739122531685,-0.053955629250308376
6.736,-0.20085498067567178,-0.16138257845894613
6.74,0.04143945007365116,0.021833675241693336
6.744,0.23991852201170955,0.20865905413405725
6.748,0.278315071265519,0.22477630866496778
6.752,0.16426836627569447,0.006282311092643537
6.756,0.0951472902225747,0.0831359534990647
6.76,0.2932830827902174,0.18298326525325656
6.764,0.5197037294469311,0.3891750184924091
6.768,0.34465861503438944,0.22741296290383856
6.772,0.134880267429131,0.05826751506487136
6.776,0.08925034545589187,0.0542687731169714
6.78,0.29476200866864233,0.20631240863275663
6.784,0.43116366549149043,0.357852229606802
6.788,0.31942643317295893,0.33786796873940295
6.792,0.0759070721454532,0.06675621504936516
6.796,0.062951784652988,0.036535255921156966
6.8,0.24722600615043644,0.16555612483727775
6.804,0.5249398445402985,0.32986282215872603
6.808,0.34930070029781635,0.2772717142700831
6.812,0.1519895816559301,0.07113693258632668
6.816,0.0755855777389026,0.025729537310452022
6.82,0.15855938309108952,0.2169102802278877
6.824,0.38679407872727567,0.3010298734445318
6.828,-0.18229976431023845,-0.10606948962356552
6.832,-1.0591974441690288,-0.8108008418727962
6.836,-1.4044613117536602,-1.1441677308616678
6.84,-0.9690446072532412,-0.7739736606828448
6.844,-0.1528480683141638,-0.14927514040906031
6.848,0.59907725919628,0.5916576919673786
6.852,1.2040897180393737,1.0471486813285618
6.856,1.6033988802067363,1.149193627317407
6.86,1.6022613371075736,1.2911872005235798
6.864,1.1575441638139414,0.9747867019384502
6.868,0.2855570049399729,0.18424750633625764
6.872,-0.7126297793007373,-0.6968046585064399
6.876,-1.309394574214854,-1.1154128676327466
6.88,-1.2078576380713668,-0.9749261600210328
6.884,-0.5091913886001749,-0.3643508002897924
6.888,0.3433360480973647,0.3171474397355687
6.892,0.15555816970786673,0.1017787212630537
6.896,0.052337861843505265,0.06465741598740757
6.9,0.2606863509106984,0.19239961632407473
6.904,0.4354700681414581,0.4002157213843214
6.908,0.32410509952804745,0.2515848561576857
6.912,0.17707025605117852,0.028965074076982247
6.916,0.1211911917995382,0.07059445181055861
6.92,0.25728778046669415,0.18606904419019796
6.924,0.5238133445663034,0.39446254304499956
6.928,0.44821960200743355,0.3311373039147883
6.932,0.06573800474955385,0.08519144060179626
6.936,0.08935621856550291,0.07431238539893523
6.94,0.2836201896009579,0.2548239872755945
6.944,0.43690424098143804,0.3862784768660907
6.948,0.34021600268506497,0.23345501346289205
6.952,0.13129433536589658,0.12065945889851644
6.956,0.08680487657632867,-0.024652770128370083
6.96,0.20960295638335558,0.21789713066616723
6.964,0.33941581168624996,0.30811427225655474
6.968,0.2010467798084776,0.24374807088370745
6.972,-0.056263604500212,-0.06598587431439923
6.976,-0.09180830881948564,-0.17099291383427498
6.98,-0.012575041275721927,-0.05041115206307521
6.984,0.14728354378704953,0.17236662704361566
6.988,0.0344036048783163,0.04019755503912423
6.992,-0.0893797230104326,-0.233815500991113
6.996,-0.33661835416440217,-0.24966123133457516
7.0,-0.09235491828042766,-0.04718864625274487
7.0040000000000004,0.0920428645931682,0.0634083326118133
7.008,0.08569217008755356,-0.02462187014658243
7.0120000000000005,-0.0938930503767269,-0.051978418962101015
7.016,-0.08314431027578542,-0.1993822956524599
7.0200000000000005,0.1571695125701161,0.10136997621270488
7.024,0.35116707625624144,0.4207907923676293
7.0280000000000005,0.3795473591010478,0.28926045633299524
7.032,0.21782449403603782,0.12135411563445198
7.0360000000000005,0.24440050985080344,0.1537271574025424
7.04,0.41670153863036763,0.3838368076930533
7.0440000000000005,0.6546214265704355,0.5704651449495697
7.048,0.737776307846254,0.5738104756174527
7.0520000000000005,0.3523806132361074,0.3682343453048812
7.056,0.33892532000777825,0.3040282835872594
7.0600000000000005,0.5312525498291345,0.46685456917133655
7.064,0.8940407056678286,0.6025996962930033
7.0680000000000005,0.615554549967702,0.575364096961153
7.072,0.4037588221657165,0.27918479674496793
7.0760000000000005,0.25984172718113163,0.1831178756097912
7.08,0.39507460399077565,0.2967371861704552
7.0840000000000005,0.4146605823063695,0.45149165739705654
7.088,0.4091773363375916,0.3115848437823034
7.0920000000000005,0.08069136423129661,0.017966426551093144
7.096,-0.060964425372841434,-0.149934973738374
7.1000000000000005,0.05797202643165623,0.029667946125398127
7.104,0.10019051963610738,0.16320390984571176
7.1080000000000005,0.0866956779927522,0.03553331419250948
7.112,-0.11300481003784477,-0.21970354265598585
7.1160000000000005,-0.24401814635832486,-0.2897894422356311
7.12,-0.1382152343602065,-0.13006254832698216
7.1240000000000006,0.040651681601468835,0.041575404329272286
7.128,0.11906095362825338,-0.002008468563436668
7.132000000000001,-0.12980941122559522,-0.1623774502655641
7.136,-0.1713934115450807,-0.2022603069457751
7.140000000000001,-0.013340376552776478,-0.056472010005421125
7.144,0.41834809842497733,0.23797452909624206
7.148000000000001,0.36030183512914876,0.27777186749670707
7.152,0.19743356570918402,0.06774970758484254
7.156000000000001,0.007547740457898244,0.11237871551270345
7.16,0.22819709103301605,0.19221876447151504
7.164000000000001,0.4952142765443941,0.39168687157259413
7.168,0.3238729031380959,0.3049442895853844
7.172,0.09459835442876469,0.1071193933251777
7.176,-0.009422178616098939,-0.03321514461258667
7.18,0.20141798913456063,0.21157151669099097
7.184,0.4255987018456899,0.3163928317645059
7.188,0.32716559523857,0.24791681831237217
7.192,0.1418485280088556,0.022123333557766654
7.196,0.09118717076472876,0.056181018470206845
7.2,0.2389790680528069,0.2286877627087108
7.204,0.4208423121858543,0.430849218610027
7.208,0.2990910821511843,0.3267353782638844
7.212,0.10599485880882967,0.11552220991088759
7.216,0.021674502726061213,0.007125878438932091
7.22,0.24713900340838085,0.20896297412143458
7.224,0.4334729387948549,0.31001276355985224
7.228,0.3582055451033438,0.2828975464416734
7.232,0.10692594458642067,0.06292533593906278
7.236,0.012214286781220138,0.054750009888022644
7.24,0.2389332638795197,0.19343868388402372
7.244,0.3650994378961006,0.3488142231705495
7.248,0.32515368856979293,0.2545758078093465
7.252,0.08845466868316702,0.13346318065464452
7.256,0.054445568292663504,0.056051399904595976
7.26,0.20085730872332958,0.2373710097348271
7.264,0.42073513371506366,0.2989064434859542
7.268,0.34938173387561616,0.30007325865707446
7.272,0.1397796828230035,0.0959546056599279
7.276,0.027513171122266974,-0.0677934294341214
7.28,0.31335927742185904,0.20309833692131454
7.284,0.3866294561749133,0.3294747662849873
7.288,0.3847969034854391,0.2847700517240919
7.292,0.1734005613403552,0.06638791720711601
7.296,0.029315969262808307,0.043380412065195356
7.3,0.2428306576636946,0.20478648688880455
7.304,0.3835591654022341,0.3856757620535989
7.308,0.2973353389598088,0.3410585464029666
7.312,-0.046645775700346545,0.11174857779130057
7.316,0.03210531117323248,0.016835814267700575
7.32,0.2671897837816945,0.1913075998600409
7.324,0.3924820641324183,0.36641823352908537
7.328,0.473331309580739,0.3181540523178573
7.332,0.1359648526957674,0.13265719047295071
7.336,0.014495587235035152,0.013385616485644757
7.34,0.12228101265285686,0.12387440098987391
7.344,0.339065801316076,0.3835084097433397
7.348,0.40093106490977903,0.27970899300954943
7.352,0.111060515293425,0.07062916337530414
7.356,0.04900577874747745,0.01340348578882396
7.36,0.18888384776375935,0.15541777837707096
7.364,0.4479060586624215,0.3515651793972336
7.368,0.39003381886527444,0.18568606325532272
7.372,0.15230820011335036,0.04721206534441735
7.376,0.01965313424772909,0.010353642999726666
7.38,0.12300440669601752,0.18043438449372529
7.384,0.425022252491123,0.3633597163006864
7.388,0.3012361017262478,0.3986414925069899
7.392,0.10489893668796021,0.05552313401903112
7.396,0.014764444089550407,-0.020788715906352163
7.4,0.2017346123677941,0.19378682688372226
7.404,0.3973206843382792,0.2945934691638127
7.408,0.31249966416178443,0.28625148958475183
7.412,0.15686979556277847,0.04176974269220052
7.416,0.08697524435351084,-0.035977169732413175
7.42,0.25072093414842395,0.21985809389829913
7.424,0.37392553467928125,0.286766576944621
7.428,0.2784212976359498,0.2644539007983399
7.432,0.06678857920917568,0.0631756818356388
7.436,0.07459695125147088,-0.056299126550915346
7.44,0.2060426180157234,0.1461982906991448
7.444,0.4150237994594735,0.30915142831365566
7.448,0.3474346736299021,0.26784182406192997
7.452,0.15703654090756755,0.13115568389857019
7.456,0.04150254267642803,-0.0025490719207661616
7.46,0.2289433808567715,0.16529847682462145
7.464,0.5271027811998024,0.37614955805322636
7.468,0.32281857356940863,0.2563432666065247
7.472,0.024984537514916375,0.028518561962469727
7.476,-0.0034872987360192315,-0.012163807751384797
7.48,0.07186538871708037,0.16356195838332319
7.484,0.4185870509202593,0.31031114120409536
7.488,0.37760707837380175,0.3433847261027712
7.492,0.055821537271226476,0.061552091343401324
7.496,0.031523291112248907,-0.022441104286526202
7.5,0.12190242042399332,0.10077309474136271
7.5040000000000004,0.4143929347436361,0.3157995657451326
7.508,0.23045768178943082,0.3100526847521248
7.5120000000000005,0.06292656760389463,0.042553358081747386
7.516,-0.02252487739582512,-0.0224982054778151
7.5200000000000005,0.10933217141523827,0.14446311614006158
7.524,0.18186477272019005,0.1934176286990006
7.5280000000000005,0.12819140500461676,0.14236348653556172
7.532,-0.17771570241203585,-0.14926245811715738
7.5360000000000005,-0.14029969360379518,-0.20892102599217746
7.54,-0.007029565352170194,0.013913934225902773
7.5440000000000005,0.3421623957664648,0.165153457180599
7.548,0.38226928337937977,0.2739373696694176
7.5520000000000005,0.2666532267601376,0.08281621287109389
7.556,0.2332794924717873,0.1917172976829442
7.5600000000000005,0.4317220842161878,0.3474877709275972
7.564,0.6653617546545926,0.580764457451273
7.5680000000000005,0.6577479781664594,0.427044237595488
7.572,0.30010755717323945,0.1799122213073677
7.5760000000000005,0.11128472278057067,0.11194707721938321
7.58,0.231018167891137,0.14701747876566335
7.5840000000000005,0.3236900829063687,0.29192784437852637
7.588,0.1685460130968349,0.11938887894880677
7.5920000000000005,-0.050707794894926134,-0.12751032644001756
7.596,-0.2522025907150404,-0.1711280755980309
7.6000000000000005,-0.07645934860393833,-0.09958489441455667
7.604,0.18849151799933778,0.20953369197382468
7.6080000000000005,0.2558866549249391,0.16049634776892552
7.612,0.08740385212536668,0.03150588724052726
7.6160000000000005,-0.03484644194824006,-0.03509066854706039
7.62,0.16048470467349188,0.1675774277257549
7.6240000000000006,0.3515869480403861,0.3533183191289452
7.628,0.30804125458276255,0.25560019530975003
7.632000000000001,0.11179065021067196,0.033837685538635934
7.636,0.05759819180912634,-0.039226600531298825
7.640000000000001,0.1944202381103935,0.0874464950746679
7.644,0.2857412997344875,0.33373847198715506
7.648000000000001,0.30828297443019576,0.3922189041833499
7.652,0.03947374909337152,0.11226373210573215
7.656000000000001,0.00900462123540672,-0.073798018525251
7.66,0.19107850064315884,0.1675169609258666
7.664000000000001,0.32738636721162784,0.3454936791466214
7.668,0.30666689775931383,0.26869255591929564
7.672000000000001,0.07901123549845272,0.07326618871384226
7.676,-0.027651325308257917,-0.00985839033680937
7.68,0.1779629543516948,0.17421115558318834
7.684,0.3461222877552556,0.3754915720426107
7.688,-0.7506107356568872,-0.6134052515655601
7.692,-1.4793442442655176,-1.1035641441522186
7.696,-1.3705742646630894,-1.1080533882299082
7.7,-0.5697145836288168,-0.5650380864470663
7.704,0.47489423483787707,0.3291056673702052
7.708,1.1839749278174645,0.9326364654309124
7.712,1.5002612772988275,1.1685716590332855
7.716,1.4777094505864645,1.11862518311369
7.72,1.1055690353380068,0.9620559693472118
7.724,0.5681474537346994,0.44045562821141265
7.728,-0.3546398648661566,-0.26829523369926717
7.732,-1.1910869456704152,-0.9977332879440483
7.736,-1.377341588440217,-1.1938717742173157
7.74,-0.9106966351423522,-0.7796980344937711
7.744,-0.009018168700053529,0.04427528436273054
7.748,0.27689107204712887,0.24539877822257908
7.752,0.08998779556035798,0.028390180574825764
7.756,0.02866104965924139,0.0026718303128041923
7.76,0.18447885660011848,0.1792687295673697
7.764,0.398005483325637,0.28424829457286094
7.768,0.3106538824411635,0.26840581496435434
7.772,0.14807976823239855,0.07410709874647743
7.776,-0.04924171285779933,0.017609962770471943
7.78,0.1715768898880377,0.15052721607598962
7.784,0.33911216631343,0.30429436153312334
7.788,0.26621523299813143,0.314560125596933
7.792,0.16170953846633368,0.10590982080861219
7.796,0.019781039784874475,-0.06417274830339628
7.8,0.1319281979756033,0.17025660581715826
7.804,0.3415503890358651,0.26006299022509183
7.808,0.2964365893627367,0.2985968201568587
7.812,0.016083300426541165,0.06873888732297723
7.816,0.07900231849617578,0.1369997988340132
7.82,0.18443916030640034,0.26202453909761003
7.824,0.28788157800572184,0.28000779352316874
7.828,0.2056805288260334,0.13001333859950315
7.832,-0.08547801730972972,-0.12440447097821039
7.836,-0.23559666447033886,-0.2218597592294524
7.84,-0.10771563495589546,-0.02794048999847909
7.844,-0.01753054070830054,0.0024007609175838718
7.848,-0.08494462066885926,-0.12570007086660911
7.852,-0.38931059397273116,-0.30772500370783107
7.856,-0.23153779573226985,-0.28548220774814315
7.86,-0.16349318789714595,-0.18279520987140982
7.864,0.06642398898777349,0.10196801797656932
7.868,0.08943222199971199,0.03649075540368443
7.872,-0.11861723298030337,-0.09277961564415896
7.876,-0.15599868257350913,-0.08210457262714674
7.88,0.15409815183903453,0.1329308424832068
7.884,0.4149528027470031,0.3728821587008719
7.888,0.3720330585758731,0.33207960432455674
7.892,0.15597754068804964,0.12384255875850941
7.896,0.2123900641110284,0.09250194953708786
7.9,0.541219410794453,0.3072746210178204
7.904,0.5902259863942162,0.5982582403448357
7.908,0.6091840274420457,0.4995943569184628
7.912,0.5168317342113278,0.279719618112415
7.916,0.32479019095894024,0.25493860107368355
7.92,0.5001326522655829,0.399393496986573
7.924,0.5906622729052682,0.5639316483457781
7.928,0.564970638099776,0.40211310577122694
7.932,0.3233680442760728,0.2352253900655657
7.936,0.06333467443921202,0.1089701633825871
7.94,0.19696887947413272,0.21262878918204622
7.944,0.37831201434412187,0.329752211424239
7.948,0.19862659808147423,0.1741834545483366
7.952,-0.05946683628487054,-0.05515793595421003
7.956,-0.18477827224396048,-0.12328325349516969
7.96,-0.09151428275632675,-0.034080644404755805
7.964,0.018500942810510332,0.10766805554875603
7.968,-0.016500127536316436,-0.042160572924062105
7.972,-0.23081154299920154,-0.2505461647064146
7.976,-0.33160947347643344,-0.32585363923928445
7.98,-0.17030566116967738,-0.1228797478164967
7.984,0.04372048192018043,0.0011521466901495137
7.988,0.0004031604880023118,-0.012300408255613009
7.992,-0.24292197946683225,-0.22944441320774017
7.996,-0.24263656939417058,-0.2107485860518405
8.0,0.09903973521420109,0.055901083809908395
8.004,0.28756864855209363,0.264257214198849
8.008000000000001,0.3074241828321322,0.2909390284088883
8.012,0.1171841929602177,0.07226558632267788
8.016,0.01452135795653155,-0.01364009005483197
8.02,0.20222603082329957,0.06859238710487571
8.024000000000001,0.3248312305675126,0.352735193791616
8.028,0.2767168352291551,0.23975603358294761
8.032,0.09693565381479624,0.029465179785068674
8.036,0.04638327162172584,0.01214581380739739
8.040000000000001,0.21327887035901033,0.14570613577984493
8.044,0.3406105646229068,0.2999416607780268
8.048,0.28142132203075876,0.24531556361000884
8.052,0.036852739294455886,0.046391253880578964
8.056000000000001,-0.011452878648415585,-0.0066098007486429765
8.06,0.19495461619754736,0.1613534276146289
8.064,0.3940398369305627,0.38581906646021225
8.068,0.2829580093440902,0.25960348617204326
8.072000000000001,0.0653602634495044,0.09329384466139079
8.076,-0.07606580138766837,-0.04698643303416665
8.08,0.26560012735749905,0.24196246883087918
8.084,0.3494001402286512,0.25652788419938477
8.088000000000001,0.23413477035129163,0.21786859222556598
8.092,0.015892529332965942,0.040016424182224355
8.096,-0.05212286343722978,-0.07613622721491128
8.1,0.1516301212599119,0.17346465401057082
8.104000000000001,0.35165950565879434,0.3390079838887747
8.108,0.2520725019649333,0.236947545983957
8.112,0.044830228185923,0.07204659943317095
8.116,-0.09011984705857769,-0.028525822683955395
8.120000000000001,0.14094445170312658,0.10152316587538733
8.124,0.31956515314408596,0.23292081992458358
8.128,0.2375474232559214,0.24291873615116089
8.132,0.07231176415368458,-0.031026272683940995
8.136000000000001,0.03761987612160876,-0.11531344953140062
8.14,0.17075049577624501,0.15259857088877984
8.144,0.3946251442398495,0.30452111215270333
8.148,0.28318328780934876,0.26638470956367116
8.152000000000001,-0.0055597261487004765,0.018085694518635526
8.156,-0.03724246003664942,-0.007357840417754349
8.16,0.12415970463746923,0.13393851930816741
8.164,0.35457240775154386,0.2746106043657629
8.168000000000001,0.3014392089982106,0.25310139954949346
8.172,0.054023516239435215,0.03252684073874211
8.176,-0.038260825049493845,-0.02977662149406364
8.18,0.1440034045548385,0.13851641379806337
8.184000000000001,0.2942551063172847,0.3262725072620046
8.188,0.25879719630701475,0.20430823853048713
8.192,0.06684163175352516,0.07719878992993309
8.196,-5.0641113988718345e-06,-0.06314763263884421
8.2,0.14684756228200038,0.13679946122334105
8.204,0.5102993864847293,0.2462004787646876
8.208,0.27119485328137277,0.23710938383573818
8.212,0.026016398363352275,0.1411617404006242
8.216,-0.036049341831726395,-0.05272167109393998
8.22,0.14026224942210824,0.1861449793822027
8.224,0.33664688916647295,0.32320965053919565
8.228,0.35722469479431823,0.26225797179401417
8.232,0.11133147941262428,0.012633779483826102
8.236,-0.04038215440378973,-0.010508932478909244
8.24,0.08529000342360366,0.10632775475630277
8.244,0.31596620549544974,0.2800837312014232
8.248,0.3262981303561046,0.21708355953613506
8.252,0.022501101458729172,0.05380010109463213
8.256,-0.02954779410248167,-0.004751290689608723
8.26,0.18098465332246627,0.1348322776188901
8.264,0.3322565606323696,0.2916967188718553
8.268,0.2587104328301859,0.2006598742329048
8.272,0.05431052619306302,-0.007022456383181146
8.276,-0.05359620798853155,-0.07097264410258423
8.28,0.14479380100715722,0.12219956003073368
8.284,0.3526359057968589,0.23721207080312556
8.288,0.3077274195005733,0.2580777459154183
8.292,0.04484023038432752,-0.051688916798196
8.296,-0.04504758619487794,-0.016309694845525892
8.3,0.1338820277711482,0.06974227354841842
8.304,0.39893634567584835,0.2821864142524163
8.308,0.23217521107975447,0.24357197557234722
8.312,0.013104556326007898,-0.018755291403685162
8.316,-0.10338073611477513,-0.04057457994536197
8.32,0.11592095655116691,0.18247496427597304
8.324,0.35392807079882804,0.2997481098989993
8.328,0.26497060302202724,0.1968047242398721
8.332,0.18927274067709454,-0.02543346678419528
8.336,-0.000556380288569025,-0.12341687085591681
8.34,0.24756695512597038,0.13734519888584382
8.344,0.4614605318635948,0.2892931172253257
8.348,0.3249200739315971,0.24034682321800382
8.352,-0.02182596442199719,-0.0658475730601401
8.356,-0.11657584784984705,-0.050758643723415764
8.36,0.12067972710934534,0.0988949130567987
8.364,0.4007591386684849,0.29977165497046054
8.368,0.2647656150032518,0.22600756942475683
8.372,0.051987555262721225,0.06881623125771838
8.376,-0.08630425335758063,-0.08705790693681097
8.38,-0.00704202966677946,-0.011211720126238837
8.384,0.16169553145707038,0.17250790438396918
8.388,0.028203286682171508,0.03147321166629167
8.392,-0.26616812748200686,-0.18088050323818938
8.396,-0.2753771418775069,-0.2714185370536797
8.4,-0.03389624353903404,0.023653904995390603
8.404,0.3215951981331325,0.3147661643176013
8.408,0.35670997284219474,0.2824852877348158
8.412,0.1479864732286595,0.15165109793879314
8.416,0.0823113446211606,0.10846955025335371
8.42,0.36201636631932277,0.32925269529466555
8.424,0.6224103490582553,0.4651309006456206
8.428,0.43658800717855273,0.4410371086674998
8.432,0.20751177196256326,0.0886447736906154
8.436,-0.005987047940624594,-0.04572586993627275
8.44,0.11369826147032441,0.0730514632821586
8.444,0.18119408671321305,0.17415348139156192
8.448,0.10023246021628616,0.031141902270616577
8.452,-0.19844620963049858,-0.252590427104148
8.456,-0.23601999540494145,-0.33165795105649293
8.46,-0.02289760518955164,-0.02413243206617039
8.464,0.20092747171643527,0.22954991443670755
8.468,0.11785642260782628,0.22337838458227469
8.472,0.02602597211100144,-0.01823518608322715
8.476,-0.07526383585132365,-0.05018157113235233
8.48,0.10688017388108803,0.1368391181003248
8.484,0.335561794527718,0.3145020440710503
8.488,0.27798653323734085,0.25851852785137625
8.492,-0.015381383098459683,-0.049362378190014385
8.496,0.009768346226688346,-0.05734679937060711
8.5,0.1301498920701161,0.08515767295489998
8.504,0.27964371964616996,0.29228158799527354
8.508000000000001,0.29716938205529386,0.20848138978400527
8.512,-0.009967453325762043,0.043130151646697916
8.516,-0.04834341825844989,-0.06111851783616222
8.52,0.17659502311762026,0.09841762649258873
8.524000000000001,0.3986127371379834,0.24007275860314276
8.528,0.31817406354070044,0.18247759589272097
8.532,-0.02637922303054919,0.015031605013792955
8.536,-0.04639785729209783,-0.07363611565521944
8.540000000000001,0.11638127942128457,0.08289955277989175
8.544,-0.5377980263216796,-0.42909326582064977
8.548,-1.0802296997705323,-0.9277938724342136
8.552,-1.530985947173163,-1.1259313639711233
8.556000000000001,-1.0729513230326975,-0.8836560951288958
8.56,-0.10960642390197868,-0.11603654821609802
8.564,0.9763183239386283,0.8327017215297959
8.568,1.5682378932638188,1.295227899337251
8.572000000000001,1.5250820284247368,1.1802509548446065
8.576,1.0486674805881764,0.836866544188079
8.58,0.4839301730834181,0.46152134809086537
8.584,-0.10093465802493704,-0.16903925027203842
8.588000000000001,-0.8736506174037952,-0.6654776278506049
8.592,-1.488111383708026,-1.2302194427133863
8.596,-1.2840319559600515,-1.048734102793813
8.6,-0.4503972603570412,-0.42859897247685086
8.604000000000001,0.2908855045402475,0.18616474899434965
8.608,0.2700234466891208,0.19095042785156377
8.612,-0.0043650731002655655,0.01685878827000255
8.616,-0.04510343851663348,-0.08155083689371781
8.620000000000001,0.14103589052068471,0.11224877225465803
8.624,0.34680781429410645,0.24922861270853447
8.628,0.20797864349419024,0.21610695556117734
8.632,0.08620521512937901,-0.013148153988802903
8.636000000000001,-0.08865339589866786,-0.0567714932530462
8.64,0.1734850492650062,0.021545205015263177
8.644,0.27441763893203236,0.263523586474797
8.648,0.21363902768031412,0.10558008222131228
8.652000000000001,-0.03504069404625154,-0.034197453021386715
8.656,0.017271956433983035,-0.06997738131420342
8.66,0.12953504747088196,0.07967709714774479
8.664,0.3196690979489636,0.26046767275048693
8.668000000000001,0.2303150354243573,0.18312880370531748
8.672,0.08400400473693487,0.064632679393211
8.676,0.02324267274429402,-0.11364752500476055
8.68,0.11989827911290935,0.10590223167132919
8.684000000000001,0.22550386324372496,0.2598294328838962
8.688,0.09203252242071375,0.025086316916841336
8.692,-0.21468959380383731,-0.19749051462089376
8.696,-0.3369057838795333,-0.2810191644694242
8.700000000000001,-0.21203335983052984,-0.17493417719088628
8.704,-0.03434820759071359,-0.012973877289001056
8.708,-0.2292423825460072,-0.03523579292843175
8.712,-0.3089810156679362,-0.29596030717974564
8.716,-0.38962409987508057,-0.3341892786855892
8.72,-0.1825577219527587,-0.1647291640510914
8.724,0.11349992476395226,0.04635284768728098
8.728,0.05590555586712252,-0.004600915129420145
8.732,-0.15260719698774702,-0.11031699938205677
8.736,-0.15917624929737606,-0.146610779023888
8.74,0.15006648695733102,0.1139719734403096
8.744,0.3813102630272507,0.3191148289263943
8.748,0.3895776391092441,0.3159275344601828
8.752,0.2166001992062696,0.09742330535086836
8.756,0.09038929665652225,0.13149184901649114
8.76,0.35041570435220254,0.34635391778892954
8.764,0.6452748106855943,0.5274624440987219
8.768,0.5882849966463615,0.505371765230048
8.772,0.42005228066276157,0.25481310281720027
8.776,0.43094640591724076,0.2460058201926393
8.78,0.48748220962257605,0.3662726071432876
8.784,0.5720472743871773,0.4678497204368795
8.788,0.5321505641842919,0.46660658199564187
8.792,0.19198961081179677,0.12416625132321252
8.796,0.05648998314254326,0.12095544503196337
8.8,0.1517450215556136,0.08585145954530479
8.804,0.33339756772614915,0.24800009197534217
8.808,0.21291403041474982,0.10237084069896113
8.812,-0.09414829822911235,-0.15069178323444468
8.816,-0.2562963312991363,-0.2532422290130566
8.82,-0.15759485689957775,-0.11279599082858632
8.824,0.008495322643758092,-0.03396974856156831
8.828,-0.022349004722356333,-0.08623323210510936
8.832,-0.35487824406201635,-0.2718715613820818
8.836,-0.3279330817696252,-0.4194507575732008
8.84,-0.24584109565173348,-0.20908685067485328
8.844,-0.00340943847630059,-0.048143975559440125
8.848,-0.03732279929296685,0.03222008055756047
8.852,-0.25966404964625267,-0.22066009125795322
8.856,-0.37870974073633956,-0.21814396972553068
8.86,-0.11352357695730972,-0.052682382942197965
8.864,0.2868189089653078,0.25361596762239114
8.868,0.25900332352415034,0.1787028658846228
8.872,-0.07480452144479562,-0.10829698900770483
8.876,-0.09467346354845545,-0.12458771320821832
8.88,0.16930386234655562,0.1376153418192766
8.884,0.2947091631902712,0.2834424111813039
8.888,0.22167549012812632,0.12837958545820088
8.892,-0.09460580422459508,-0.02779190197307273
8.896,-0.05740612457026882,-0.07271266347002908
8.9,0.1319244244822121,-0.004228312327659398
8.904,0.40563437649922607,0.24226063925191924
8.908,0.19823822464325316,0.17179741040058533
8.912,0.044737629877186144,-0.040001932373498104
8.916,-0.07913083864560592,-0.12233650122379375
8.92,0.08523998665828289,0.15837970516739064
8.924,0.3002895218600645,0.2905775551215517
8.928,0.22837126949186298,0.14617574366723013
8.932,0.03315268538778779,-0.04435328000971804
8.936,-0.16487650874757115,-0.14648132577412376
8.94,0.06743784144925895,0.08095061254589717
8.944,0.2676761633556536,0.2780490220558948
8.948,0.2092593545747883,0.15530601268845878
8.952,-0.04029026395854782,-0.0498990290898183
8.956,-0.005620373922105987,-0.13241146579108648
8.96,0.08510520112944286,0.0633234136484617
8.964,0.34441581623614315,0.293622188264712
8.968,0.2545326734391831,0.1932265116917675
8.972,-0.05785063656041343,-0.06702512175844696
8.976,-0.12734857921086845,-0.07319003761959482
8.98,0.032841290256681484,0.10391046656947833
8.984,0.20419336749543193,0.17044179311222538
8.988,0.23712301397706312,0.1945620229526608
8.992,-0.08087630095902101,-0.029595781036991762
8.996,-0.02585119375608118,-0.08227907986024872
9.0,0.19044203692665174,0.10501615258554965
9.004,0.30420353214933177,0.19283255996517074
9.008000000000001,0.21473600981970167,0.20410719156339985
9.012,-0.04962828319632491,-0.06683560638340633
9.016,-0.11637246517416824,-0.20214286263156467
9.02,0.12642822562728817,-0.03400512007907662
9.024000000000001,0.20389419235131917,0.22384422097754017
9.028,0.17670341617282645,0.1478743674442683
9.032,-0.009752115701668097,0.023639626419578466
9.036,-0.11421385035256088,-0.08888975458295703
9.040000000000001,0.09668323785667131,0.11961734535179666
9.044,0.3176491998978545,0.17456442232262342
9.048,0.22703276225170255,0.22164164616905285
9.052,0.11699820566517917,-0.014101228810327975
9.056000000000001,-0.13939285147445257,-0.15033450322581787
9.06,0.13916528460526434,0.14372817479880096
9.064,0.23322942547799055,0.22894244883171155
9.068,0.24848665499251296,0.18656700370444831
9.072000000000001,-0.11585794446437257,-0.038137913314995706
9.076,-0.05897349258325759,-0.09038547436105143
9.08,0.021009669855052107,0.06569150385130201
9.084,0.3375749897644695,0.20015446532433218
9.088000000000001,0.14463116026679632,0.19677663745304969
9.092,-0.08649634858691646,-0.09825517195855633
9.096,-0.12094397077483036,-0.11595970841826195
9.1,0.12868014133284905,0.0024707599345892145
9.104000000000001,0.2830520487593977,0.24146787621588253
9.108,0.1590866321932724,0.22261631204990662
9.112,-0.05272541989144468,0.008764774425931689
9.116,-0.13582189737721861,-0.1434138457363503
9.120000000000001,-0.048909183005153664,0.026235811078884265
9.124,0.19264767854547082,0.20930996001749494
9.128,0.16511375074468623,0.16243239457569078
9.132,0.021275114258886646,-0.01613764080578805
9.136000000000001,-0.06600182239406066,-0.1280946071178603
9.14,0.048794085177847744,0.11370007691339393
9.144,0.2910528737670348,0.22236545780869726
9.148,0.2823924721910285,0.21288108992808022
9.152000000000001,-0.040570477462784596,-0.07204601189698703
9.156,-0.09540710603360551,-0.06150514755867194
9.16,0.13223237887954922,0.043109571716036604
9.164,0.2489061798757971,0.2546624243221614
9.168000000000001,0.21064667626397024,0.15853562397399987
9.172,-0.049470185693081606,-0.029176630992755553
9.176,-0.05930181330951941,-0.11307129036456234
9.18,0.11265930358569246,0.07576613048152499
9.184000000000001,0.3298218935306958,0.2253635053181243
9.188,0.24469751245967847,0.1934476364848013
9.192,0.0230126828296746,-0.07076345849130404
9.196,-0.11674059461615884,-0.035658108134089844
9.200000000000001,0.11854757435035926,0.030848640151749616
9.204,0.20020519215456328,0.14789140651399274
9.208,0.15090750387555818,0.2309247562375483
9.212,-0.019001521440394745,-0.1455775037927417
9.216000000000001,-0.08006618759651785,-0.14010250123412266
9.22,0.07422841406696717,0.03543127346264059
9.224,0.25778781952850444,0.1958181317110958
9.228,0.23645231214843246,0.1668411682069709
9.232,-0.05017030759390277,-0.12035990831570877
9.236,-0.22789220398999072,-0.049809186202420364
9.24,-0.08304684386338809,-0.08142238298501686
9.244,0.04089904799270387,-0.0023721682512158823
9.248,-0.019858145996665237,-0.10563246249392977
9.252,-0.2506636221511942,-0.20200271958446037
9.256,-0.3233557656187031,-0.1483026574103125
9.26,-0.033047200132030774,0.06292072190420184
9.264,0.3733786643556299,0.27497677268136206
9.268,0.3794808549671308,0.2692022117301578
9.272,0.15705000169071265,0.08070104433116462
9.276,0.13633992162067735,0.012925163324567154
9.28,0.27195068846726067,0.22673333227064116
9.284,0.4154277072367114,0.4365596800640864
9.288,0.40487542923313224,0.23727765740198165
9.292,-0.00367801559269715,-0.05459555017410987
9.296,-0.1581318358706295,-0.1532862397286858
9.3,-0.07889957656066592,-0.07356692013767298
9.304,0.011186008008686826,0.09048346865726764
9.308,-0.013937868801324055,0.019641675024466704
9.312,-0.3073081217539991,-0.31475122725694016
9.316,-0.3757655000765566,-0.3094357656706056
9.32,-0.10922235192762558,-0.09297642031177572
9.324,0.2943206149693301,0.20325650948096644
9.328,0.1841659683599428,0.20091459086389316
9.332,-0.02777673527094444,-0.1074157253642139
9.336,-0.23914096190296513,-0.10748687346966558
9.34,0.18519600532965697,0.12844337158778374
9.344,0.2267075044262994,0.22342923742471235
9.348,0.21461270525879003,0.10781934226854348
9.352,-0.11599801949777666,-0.049867907348866126
9.356,-0.19002519648935431,-0.07563461795326704
9.36,0.07023548714124643,0.011160270252072585
9.364,0.16418184724981694,0.15871652931069483
9.368,0.14570622167811978,0.17521524077441442
9.372,-0.10164200204289153,-0.006399067559278812
9.376,-0.09050958791276326,-0.19139703567759508
9.38,0.05256559920982046,0.03813083283316092
9.384,0.16568779643765955,0.21021825497398242
9.388,0.2084779846301263,0.16415111267467697
9.392,-0.06318340812502657,-0.04404688106036042
9.396,-0.08814371085007303,-0.13010855608116767
9.4,-0.5375177534425467,-0.3808657492555685
9.404,-1.0205704747361966,-0.7218813686765092
9.408,-1.348873767121389,-1.0557683943127054
9.412,-1.2697253227374152,-1.0554688780540946
9.416,-0.5636962999789938,-0.4708236823663275
9.42,0.47269105802810396,0.440849507977276
9.424,1.3976451384945534,1.103459376126729
9.428,1.6491013745294465,1.3722774797765513
9.432,1.2634011027579966,0.9905509702530836
9.436,0.47296034376534324,0.4282227925092309
9.44,-0.28424343686212616,-0.14966919891735372
9.444,-0.7870343988078826,-0.591752516863867
9.448,-1.3031264872300536,-0.9443821011324373
9.452,-1.520756246802014,-1.1851946610142232
9.456,-1.0073338972573973,-0.8147006140450771
9.46,0.07610935507313346,0.013774680297104741
9.464,0.19021695710094372,0.2451306994257751
9.468,0.07752329388402363,0.12631368429401701
9.472,-0.0792592862884087,-0.02892224262828169
9.476,-0.17293851392914583,-0.16329410824577706
9.48,0.06211163134039832,0.03468578498193877
9.484,0.2954355505039782,0.20447203647631887
9.488,0.24259763854453587,0.1834392194791516
9.492,-0.12921812551869516,-0.0136426033003774
9.496,-0.20775872498752068,-0.1616046299895438
9.5,0.05667872917312514,0.06240644285698972
9.504,0.21544807077898137,0.21406138706088546
9.508000000000001,0.14438389758682946,0.1768355048337639
9.512,-0.10149943592803823,-0.06669259210279078
9.516,-0.17351582610732888,-0.15627187694273253
9.52,0.07893971330557628,0.060045487015653924
9.524000000000001,0.19777623699759866,0.1285537930299444
9.528,0.1244899009211676,0.1555405483478402
9.532,-0.08292334439131291,-0.022966124383910394
9.536,-0.1623352030182225,-0.14167673431189368
9.540000000000001,-0.03568614998800418,-0.008024453197516893
9.544,0.0871896348154316,0.13992964804061359
9.548,-0.09150572727517106,-0.07184263033218316
9.552,-0.37962884551286324,-0.32020968664970434
9.556000000000001,-0.42564499846465975,-0.351939523410322
9.56,-0.43679920433729547,-0.21692060997989215
9.564,-0.0752069006173528,-0.043137650314756366
9.568,-0.1797501320073359,-0.13628496820522296
9.572000000000001,-0.47572352360409476,-0.3579732496342347
9.576,-0.5129600120067535,-0.4128417356107831
9.58,-0.2756286480579833,-0.22135878365916156
9.584,0.012863507642705531,0.007601078540629615
9.588000000000001,-0.03657240988756764,-0.04910835305403033
9.592,-0.2733962030638271,-0.12499367782319144
9.596,-0.14761064339571076,-0.08648038722022183
9.6,0.1561733938914144,0.09991965512505041
9.604000000000001,0.3525582304280145,0.3245807701764202
9.608,0.25723303307770023,0.3105974834402446
9.612,0.21443532500157292,0.04639043954646853
9.616,0.14155372465261823,0.0493458020868701
9.620000000000001,0.3508860153178905,0.29830661853896273
9.624,0.5640653761135636,0.4815581045478027
9.628,0.5202231829412857,0.45556081566366347
9.632,0.25870126549659767,0.22207974438886724
9.636000000000001,0.06695126809616721,0.10183593352310097
9.64,0.2758688876725243,0.2722359160845876
9.644,0.3824720099335747,0.4493206821303454
9.648,0.30528667552403627,0.3625710648118402
9.652000000000001,0.04463837908402305,0.024335537930298683
9.656,-0.1473297791854068,-0.13528637930963872
9.66,0.019924712223216026,0.02114594218445921
9.664,0.08705923574178423,0.14363682812997017
9.668000000000001,-0.08154063831562132,-0.030512206795243656
9.672,-0.33651141837037574,-0.33833090245366126
9.676,-0.4018315305459979,-0.36129729687406037
9.68,-0.2789582777441358,-0.25667138998200667
9.684000000000001,-0.1172683527440736,-0.07571615224704469
9.688,-0.12934636962110585,-0.20295965066661376
9.692,-0.4724904898033555,-0.3852963879798951
9.696,-0.5759754829509198,-0.4467342594097887
9.700000000000001,-0.24357037107781726,-0.22366723872579625
9.704,-0.04040111100240586,-0.07603919904581226
9.708,-0.13642686595232628,-0.03989490943922723
9.712,-0.38454223984175506,-0.21308841352428257
9.716000000000001,-0.2938042521054449,-0.22054257001157232
9.72,-0.06680557803379401,-0.12708175429518118
9.724,0.3061893033183397,0.19689621680096792
9.728,0.30638514428731806,0.17746865107878598
9.732,-0.11029733084397793,-0.11073736639658568
9.736,-0.21884599693847628,-0.1144407142596059
9.74,0.06783167629970532,0.0988617568277919
9.744,0.1463253826079869,0.19709713828399034
9.748,0.14405920371571168,0.048694372304405056
9.752,-0.18369331859643284,-0.08496104355472844
9.756,-0.22943221006386927,-0.11960834675270858
9.76,0.017063938366076472,0.017533162024782997
9.764,0.15413107642585633,0.20571920062414262
9.768,0.11260578837159431,0.1597767816369731
9.772,-0.13156893751860316,0.04349258809999651
9.776,-0.22135310217245344,-0.22995362616998904
9.78,0.05302204497727808,-0.010395598359586304
9.784,0.21317354660974228,0.15533584488793517
9.788,0.09256147232670472,0.15683054752528716
9.792,-0.11960542756078103,-0.11312860464866198
9.796,-0.17013116389117575,-0.20151055981252805
9.8,-0.03441377059225667,0.0562533869332087
9.804,0.13515044011363278,0.1505544170912606
9.808,0.1307195064699241,0.018302544921520614
9.812,-0.10594654926214779,-0.13794505427084902
9.816,-0.1558696050144374,-0.22528271457532728
9.82,-0.061900606000943395,0.036942240166098664
9.824,0.24426800974134202,0.14759366543206004
9.828,0.142097659603483,0.10928117064671285
9.832,-0.013461345143703188,-0.045014432941163855
9.836,-0.1096990472157711,-0.15630027611436387
9.84,-0.0019698328667168176,-0.09302292826263618
9.844,0.1915127327531042,0.22720830832496433
9.848,0.1318185874173348,0.10961553144314767
9.852,-0.07992272882774673,-0.11441238542275614
9.856,-0.19732918012781703,-0.07068985755943188
9.86,0.07120821618049647,0.02201018215673204
9.864,0.20419967419772495,0.1778727934119587
9.868,0.10482789154666017,0.10768959089058494
9.872,-0.14245687623938333,-0.14521714799768196
9.876,-0.23660023521568085,-0.17518567944753372
9.88,-0.02577194651059989,0.026212919419137438
9.884,0.25024866837547066,0.11805474598388885
9.888,0.19120618009479112,0.039379874678434026
9.892,-0.17049594255296713,-0.1007540210405724
9.896,-0.13898747362401367,-0.12696328819260755
9.9,0.14408300926559195,0.025334637012147075
9.904,0.21581704847592775,0.1720897747026787
9.908,0.07655301670753907,0.08145091463400475
9.912,-0.1292714391349689,-0.04000690091942514
9.916,-0.2083863992105716,-0.14093213159655457
9.92,0.007304229383088054,0.06614450651184456
9.924,0.17618063305741996,0.18578879040098042
9.928,0.12666472582732669,0.1112105650901543
9.932,-0.09598924472778278,-0.15618384376667588
9.936,-0.17137048699523405,-0.15098315766582737
9.94,-0.027594646651103845,0.06948404306417406
9.944,0.12250115691274238,0.1386003865163676
9.948,0.19996992736450353,0.020555391125143832
9.952,-0.13566374498584655,-0.0808763106962408
9.956,-0.1926202307393157,-0.21465574820230643
9.96,0.010590347769146488,-0.03384267577418368
9.964,0.25574548487519694,0.18954630627356944
9.968,0.1519899769604173,0.08695173183686332
9.972,-0.08189957112920371,-0.17747482522399455
9.976,-0.1761752336112953,-0.1299639015123528
9.98,0.05995363880156232,0.03195435728020204
9.984,0.15790349465113965,0.04534692555463993
9.988,0.1388464996689194,0.071673051191533
9.992,-0.09892457385674192,-0.09690633969611913
9.996,-0.2724483444093662,-0.13050849453659813
