Time,Channel_1,Channel_2
0.0,0.17971135414072603,0.20110245086471346
0.004,-0.13485249890789042,-0.12260066514271906
0.008,-0.45353040080737916,-0.44711029710376415
0.012,-0.7452492581570611,-0.7411719574264917
0.016,-0.9467007614903578,-0.944136732469228
0.02,-1.0,-1.0
0.024,-0.8914150328867855,-0.8938394834712899
0.028,-0.663333681236399,-0.6653138495311606
0.032,-0.39248085458077175,-0.38991370597953945
0.036000000000000004,-0.1500978099676551,-0.14092768764116936
0.04,0.025095626846676877,0.03910066116957922
0.044,0.12767707649909132,0.14285818706620845
0.048,0.17428896625768875,0.18813199005118908
0.052000000000000005,0.1914419079619123,0.20368427797556654
0.056,0.20273912057592614,0.21503902568284827
0.06,0.2202489903233904,0.2350468135656718
0.064,0.24472250679924046,0.2632940537556516
0.068,0.2718209064000179,0.29310737144417764
0.07200000000000001,0.298071393070217,0.3194502065645237
0.076,0.3220757810121162,0.34116621260951363
0.08,0.34216702593241966,0.35829351402744636
0.084,0.3565361080961944,0.3704906363011602
0.088,0.36632198326917775,0.3788659008464623
0.092,0.3747160996487644,0.38683967221857607
0.096,0.3815881863565749,0.39611729979877097
0.1,0.3807231850484192,0.40148191173131775
0.10400000000000001,0.3627716817506954,0.39281194731851676
0.108,0.32243694104509935,0.36417956679094243
0.112,0.26446559632681477,0.31895057296444307
0.116,0.2015794514708087,0.26582393715281416
0.12,0.14655079914319158,0.21275477594097714
0.124,0.10567787935932427,0.16484085419151984
0.128,0.07745639000672644,0.12498326454009567
0.132,0.05765527923963365,0.09478065438502603
0.136,0.04524822827688846,0.07510454374503839
0.14,0.041858771022937225,0.06527167405048617
0.14400000000000002,0.047530473701428155,0.062076870321491784
0.148,0.05969343239606695,0.06255020925862875
0.152,0.07604814840756169,0.06812222159381709
0.156,0.09644807115099763,0.08367925816032717
0.16,0.12120780567136147,0.11174325423868248
0.164,0.14977145951432713,0.14889687455536738
0.168,0.18142252603806774,0.1880785366889557
0.17200000000000001,0.21502492846579768,0.22349185622944212
0.176,0.24827318823129652,0.2541837946349741
0.18,0.2785290801877667,0.2828016195913865
0.184,0.3040583192500579,0.31056451991004796
0.188,0.3245553406656132,0.33604785372628077
0.192,0.34103633014619406,0.35838360013395665
0.196,0.3539924342215399,0.3775762251407766
0.2,0.3606206846669451,0.3916750078886091
0.20400000000000001,0.3559566920343047,0.396763180280459
0.20800000000000002,0.33823328353443016,0.3900088207911787
0.212,0.31168214281915785,0.3714951907849655
0.216,0.2831794334414306,0.34359802898852254
0.22,0.25661628421316207,0.3092695687188127
0.224,0.23141155559643267,0.27137037277475917
0.228,0.2058829017783621,0.23302810457909162
0.232,0.17933179770054264,0.19678861866211284
0.23600000000000002,0.15107771698014671,0.16340724975855947
0.24,0.1202095102720333,0.1318379853703875
0.244,0.08714975351780185,0.10030607106098532
0.248,0.055256470530603785,0.068332274280833
0.252,0.029479687649676345,0.03839492006108647
0.256,0.012664232440830814,0.015365029224135851
0.26,0.004594489131083623,0.0036948949184674174
0.264,0.004489123392285466,0.005084413102830698
0.268,0.012811479881225774,0.018978173787512098
0.272,0.030640425484664613,0.044213189178887946
0.276,0.05824352489448947,0.07876431474799173
0.28,0.09410156479804122,0.11891293046306806
0.28400000000000003,0.13452411549064935,0.16051136160802737
0.28800000000000003,0.17422190949246685,0.2002631154852168
0.292,0.20816143274193544,0.23552567967351545
0.296,0.2333872499127565,0.2638281153796014
0.3,0.24881136465669806,0.28220009125726375
0.304,0.25446375990740466,0.28818817138395203
0.308,0.2515708964182588,0.28283175851207565
0.312,0.24227804396376418,0.2710408434801652
0.316,0.22958268407160332,0.25838282403545043
0.32,0.21699324290456912,0.24780929422846776
0.324,0.20704171046036768,0.23900776420911374
0.328,0.2006675162355922,0.23071055937840668
0.332,0.1976331291938096,0.2227851173351767
0.336,0.196591382879457,0.21573818472476236
0.34,0.1955018491186138,0.2101879214517084
0.34400000000000003,0.19263778010993637,0.20743661175858774
0.34800000000000003,0.18729107897167152,0.20821399936689722
0.352,0.1801395767988383,0.2104316872209384
0.356,0.17323414888883382,0.2103089803825826
0.36,0.1693117380900926,0.2057452885338158
0.364,0.17045214378650209,0.19768207769860835
0.368,0.17668083117429423,0.18952017816053868
0.372,0.18576037177857097,0.18564291311414016
0.376,0.1945146923449499,0.18864468874152118
0.38,0.20025551415819098,0.19696813477976205
0.384,0.20098578057713135,0.20591485775154328
0.388,0.19566089939582998,0.21170422009391077
0.392,0.18553826311445598,0.21356195187342353
0.396,0.17454083261465425,0.2119448535419839
0.4,0.1670410630133874,0.2074888241857722
0.404,0.16493084641963018,0.20181567410832524
0.40800000000000003,0.1674239530625743,0.1971777570431439
0.41200000000000003,0.17291514534764185,0.19488687322328135
0.41600000000000004,0.17938788095135827,0.1945519102561326
0.42,0.18447928604880537,0.19474104347686305
0.424,0.18711833225487373,0.19375821847327757
0.428,0.1883027273989084,0.19046678061942157
0.432,0.18959874106660557,0.1857652151064626
0.436,0.19118398788728852,0.18274298356257535
0.44,0.1910268572937095,0.18430220060444813
0.444,0.18597953117132948,0.19072118100380764
0.448,0.1747230808779754,0.19980683594669446
0.452,0.16007442210748457,0.2084062813574683
0.456,0.14785007563754515,0.21337942279181776
0.46,0.14311097051499977,0.212902820391222
0.464,0.14707858570799925,0.20778117423140396
0.468,0.15671816308221076,0.20083254339796675
0.47200000000000003,0.16684791869828852,0.19490766498972967
0.47600000000000003,0.1736081339518849,0.19160294126870658
0.48,0.17673952379203328,0.19102886317525347
0.484,0.178352401698882,0.19230256050115813
0.488,0.17995776284962894,0.19463122147225875
0.492,0.18139778601121437,0.1977160897232566
0.496,0.18246542553846523,0.20102132256954808
0.5,0.18399320137669561,0.20352610116398373
0.504,0.18584214157503887,0.20415286113796105
0.508,0.18597522015347434,0.20207337435672046
0.512,0.1831584051034265,0.1976017808049637
0.516,0.1782743061233023,0.1927881718248814
0.52,0.17316703993267146,0.1900231545208373
0.524,0.17008379265619533,0.19003771413789372
0.528,0.17086571456515753,0.19171786912298283
0.532,0.1754033532213526,0.1936756991497115
0.536,0.18151178659851142,0.19521989944186569
0.54,0.1862591916924361,0.19667184142455785
0.544,0.1874330740612502,0.19991337138870757
0.548,0.18497008729298936,0.20680112292852115
0.552,0.18083925319728267,0.2161590571586498
0.556,0.17697086924383187,0.22410994096974513
0.56,0.17435203801907417,0.22725329680650153
0.5640000000000001,0.17358438525230424,0.22410723971801172
0.5680000000000001,0.17527682176286374,0.21515048681313864
0.5720000000000001,0.17999307568520906,0.20371140950417477
0.5760000000000001,0.18686963344731233,0.19472844060610073
0.58,0.19298095422403838,0.19069219993075115
0.584,0.19567363355942136,0.19035165906733265
0.588,0.19450099095228945,0.1912889754641378
0.592,0.1909063787314509,0.1922161777548368
0.596,0.1872111828470704,0.19325689349588737
0.6,0.18463477965470765,0.19507811965338306
0.604,0.18205971714796654,0.1981458870282864
0.608,0.1781977543809996,0.2024809591398682
0.612,0.1738061300001177,0.2076963234195106
0.616,0.17084769638408925,0.21274252459094645
0.62,0.17118422981001458,0.21572020179367124
0.624,0.17605394668583063,0.21555467897981173
0.628,0.18508589095933003,0.2136660369835841
0.632,0.19614347571243296,0.21247988374735138
0.636,0.20707681188491756,0.21312165182585785
0.64,0.21632653466889296,0.21513492522474098
0.644,0.22135296536529192,0.21697769180717286
0.648,0.21864035716901742,0.21645290183840404
0.652,0.20518118097701898,0.21116228302052464
0.656,0.1793477652584179,0.1986079007274575
0.66,0.14291461239921155,0.1771943826787472
0.664,0.10277288347114832,0.1483963735743492
0.668,0.06851928396193308,0.11753057572726622
0.672,0.048286666492799224,0.09221542371870184
0.676,0.04644017593083705,0.08012980711976048
0.68,0.06318314805082847,0.08689945394553455
0.684,0.09615733494404899,0.1141396982472005
0.6880000000000001,0.1422387622153738,0.15877880473783001
0.6920000000000001,0.19728682654546725,0.2141663222449015
0.6960000000000001,0.2549646473107876,0.2712479444465423
0.7000000000000001,0.3062296624553653,0.31990667111672155
0.704,0.34115015187843967,0.35168639067023255
0.708,0.35173295732302523,0.36136130595787885
0.712,0.33327745900595307,0.34693053344741687
0.716,0.2865034128696955,0.3108175869293095
0.72,0.21986904943434826,0.2601086897887268
0.724,0.14786052421653917,0.20378637083325346
0.728,0.08599827257904269,0.15060623003394769
0.732,0.04597693382663626,0.1092618713356932
0.736,0.033260604676724315,0.08740392996484547
0.74,0.047757515918507076,0.08833513283529837
0.744,0.08477930963112779,0.10898693673224513
0.748,0.13458326820691147,0.14155441687609405
0.752,0.18355579006421086,0.17684522081879317
0.756,0.21906617019518015,0.2067535124075579
0.76,0.23569783368190733,0.22635497839680663
0.764,0.23731286217584313,0.23547184076847083
0.768,0.23162104191667798,0.23719470040313073
0.772,0.2236143123949048,0.23467961618917665
0.776,0.2148901593138366,0.23028694553701334
0.78,0.20620342423063565,0.22680571218788814
0.784,0.1995318347968611,0.22736194166112145
0.788,0.19903923861208117,0.233769209925619
0.792,0.2089651263641119,0.24591994326923627
0.796,0.22988959340753334,0.26275938361759454
0.8,0.2587217744423782,0.28329517381982106
0.804,0.2912814258952987,0.3063210710669373
0.808,0.32061736871125146,0.3272695073067069
0.812,0.3312938845490603,0.33270524937625834
0.8160000000000001,0.298245015395433,0.29914681506325413
0.8200000000000001,0.19581360315272622,0.2023517751495194
0.8240000000000001,0.017045461265785322,0.035191221509340176
0.8280000000000001,-0.20338536335136626,-0.17226813551014653
0.8320000000000001,-0.38427214858916026,-0.34610575725737336
0.836,-0.4298314701754008,-0.3947390074040191
0.84,-0.28288530491189057,-0.25847469555031966
0.844,0.03840495119617793,0.05231992341204528
0.848,0.4417355723750884,0.4517988763585361
0.852,0.7944127041768738,0.8075399255631841
0.856,0.973405865693844,0.9929763627848778
0.86,0.9147902475606675,0.940030841495008
0.864,0.6409083914597007,0.667906940928906
0.868,0.24996980182133566,0.2750780782271063
0.872,-0.1243022454855286,-0.10217707655153896
0.876,-0.36399283803128357,-0.34432757722280927
0.88,-0.4113985301625177,-0.3928410250367981
0.884,-0.288382590236527,-0.269022775245611
0.888,-0.07793040279075425,-0.05678054450997205
0.892,0.12576088973283528,0.14773973802424334
0.896,0.26482275402500965,0.2853282176568148
0.9,0.32910906219508473,0.34575080985112194
0.904,0.33673221039338563,0.3491248905408335
0.908,0.31206890795179776,0.3240428206753887
0.912,0.27526317978668047,0.2941877816437619
0.916,0.24081808138418626,0.27253182858437985
0.92,0.21816130646102883,0.26159078212212883
0.924,0.21026783873728916,0.25889790267595725
0.928,0.21368348338896692,0.26219222962898736
0.932,0.22220445145384793,0.26963170573509543
0.936,0.23064668970640834,0.27859121751752536
0.9400000000000001,0.23710887204221054,0.2862734456319225
0.9440000000000001,0.2435962576382531,0.2910337593091752
0.9480000000000001,0.25300965356300464,0.29290428184395334
0.9520000000000001,0.26418530809613494,0.2918645092171652
0.9560000000000001,0.27005003136556005,0.2854516244332339
0.96,0.2613159744013953,0.2695777766052756
0.964,0.23341266952441342,0.24202194035621383
0.968,0.19071324349032714,0.20433028883693094
0.972,0.14382904475924851,0.16032051101873157
0.976,0.10270351411399603,0.1142108018156549
0.98,0.07211143447293877,0.07096577490491329
0.984,0.052215189091288305,0.03613886332793337
0.988,0.040775932535859205,0.01331034917198859
0.992,0.03383813497716126,0.0025294623633536073
0.996,0.02712681605647238,0.0021114990071702255
1.0,0.019682879169298007,0.01078030023820098
1.004,0.015340454372192225,0.027331480245378348
1.008,0.020037898800823406,0.05047686296855547
1.012,0.038112860145971705,0.08006252982385353
1.016,0.06956450666443459,0.1159953727747749
1.02,0.10971792799595259,0.15596118201467424
1.024,0.15203757480562974,0.19624286004200342
1.028,0.19184042207257268,0.2341913164931615
1.032,0.22843908434962223,0.26931709169519413
1.036,0.26399473917413685,0.30252386414546995
1.04,0.2995562311283022,0.3336618714452715
1.044,0.3324910741386431,0.3601701502300725
1.048,0.35805188323393256,0.3791921141880359
1.052,0.3732517614208175,0.3902806807070853
1.056,0.3790814215291063,0.3952756300796736
1.06,0.378476091953696,0.39569373034978406
1.064,0.37266578672287975,0.39103807828533066
1.068,0.36032686678614034,0.37989627320528174
1.072,0.339264069412053,0.3610909973327663
1.076,0.30869945663029785,0.33347012720215385
1.08,0.2709839314661824,0.2968240905350299
1.084,0.2305939617484598,0.2542246399563861
1.088,0.19088211276265654,0.21161236660753202
1.092,0.15231571624393103,0.17353290913674413
1.096,0.1140052013917694,0.14042306102332303
1.1,0.07647815693290472,0.11030256266669958
1.104,0.04268732394426533,0.08171174958907179
1.108,0.016660922653399135,0.0549277052012489
1.112,0.0009911726399891574,0.03160539526636419
1.116,-0.004964400390305879,0.014553271248177513
1.12,-0.003487160217028995,0.007753331728124868
1.124,0.005709423250564338,0.014886235111035262
1.1280000000000001,0.025979050055824793,0.03689572766496951
1.1320000000000001,0.05794018648063237,0.0714162167178527
1.1360000000000001,0.09579971551737265,0.11379936286104453
1.1400000000000001,0.13236898184633872,0.15767113805149702
1.1440000000000001,0.165113183823842,0.19659387982204013
1.1480000000000001,0.19502231534960357,0.22669956362395594
1.1520000000000001,0.2218641402867474,0.2464619450364065
1.156,0.242221664933856,0.25540827334088756
1.16,0.2517017048462198,0.25543579999959287
1.164,0.24873579384747657,0.2511012988234884
1.168,0.23624402585817195,0.24621008157958113
1.172,0.2200638175875227,0.24140354061693525
1.176,0.20633097776682274,0.23557743190564695
1.18,0.19961127097194242,0.22853282793908414
1.184,0.20131642222566692,0.22226612118153555
1.188,0.20865890312746038,0.21939901448377785
1.192,0.21618318944453363,0.22012715091073876
1.196,0.2192277485162244,0.22233102168405128
1.2,0.2160590075975608,0.22419695610189905
1.204,0.2076879742059934,0.2248720095632495
1.208,0.1968797342539621,0.22467630253310067
1.212,0.1873484891408299,0.22540986329608703
1.216,0.18246463622825182,0.22771102417254507
1.22,0.18332126138330396,0.22918555092530024
1.224,0.1878726803119226,0.226940854391543
1.228,0.19244894760470244,0.21997659187646135
1.232,0.19439987510146195,0.20902162495204735
1.236,0.19299933066837216,0.19670005974032123
1.24,0.18845369365112208,0.1872374242979078
1.244,0.18144813023957118,0.18383200464726723
1.248,0.1732081050835501,0.18645822314522786
1.252,0.16496167507759107,0.1920851686760765
1.256,0.15754745529913894,0.19673068423024298
1.26,0.15210730234511427,0.19805066372911906
1.264,0.15094008687925053,0.19618201790733636
1.268,0.1564196166709939,0.19219693224109968
1.272,0.16836333140157467,0.186719008289423
1.276,0.18263832500947164,0.18086326036377498
1.28,0.1929709916945157,0.1770890348950871
1.284,0.19466143014219894,0.177581434931946
1.288,0.18683449931792762,0.18266487569390066
1.292,0.1729134998807782,0.19112279616945083
1.296,0.1594060059750133,0.20100839068285814
1.3,0.151841364668023,0.2098817354056688
1.304,0.1514863411835925,0.21538694185894758
1.308,0.15631810502456167,0.21666161191117506
1.312,0.16330012358159562,0.21455222635665772
1.316,0.16975184204212668,0.2100815705206649
1.32,0.17481361396434503,0.2038183383015746
1.324,0.17945623677146627,0.1968770194304137
1.328,0.1841724162716969,0.1912124780321358
1.332,0.18812626248607578,0.18825438868526234
1.336,0.1909314859604203,0.18806824237051378
1.34,0.19319883579056718,0.19001332427192086
1.344,0.19467573175659236,0.19316029551161407
1.348,0.19365338419287914,0.1966597431548449
1.352,0.18913846099254306,0.2004463784883319
1.356,0.18235875676651903,0.20487767263051082
1.36,0.17581184727122467,0.21010027365479567
1.364,0.17169677466986943,0.21614028262298235
1.368,0.17091407593416008,0.22233072806601406
1.372,0.17311153032870008,0.2261873317549714
1.3760000000000001,0.17764677007687268,0.22447215925700226
1.3800000000000001,0.18381735148406353,0.21626085677618523
1.3840000000000001,0.18998754301459675,0.20396748228661554
1.3880000000000001,0.19313763421778507,0.19185568923745788
1.3920000000000001,0.1905104838146101,0.1840028874025037
1.3960000000000001,0.18277889646969503,0.1816935449777204
1.4000000000000001,0.17417840102123283,0.182749008608162
1.4040000000000001,0.16852609073076974,0.18448150954593778
1.408,0.16650718403264886,0.18598542055092748
1.412,0.16636797642010226,0.1872893308024719
1.416,0.1658033892019115,0.18818617953676275
1.42,0.1640170843126285,0.18861588370264504
1.424,0.1628943007229562,0.18930904658906367
1.428,0.1653746603592865,0.19137144326446154
1.432,0.1720538013118289,0.19528330243956749
1.436,0.18003713223090223,0.20038517127203903
1.44,0.18522600592765337,0.20520842006623297
1.444,0.1858106825184711,0.20859444310645392
1.448,0.18408931966920994,0.21068280642396942
1.452,0.18410046497519894,0.21249748099762278
1.456,0.187795560919503,0.21474772367733563
1.46,0.19478598521160229,0.21708895239063808
1.464,0.2037253922637705,0.21815678188734777
1.468,0.21157819071419137,0.2166722759118085
1.472,0.21361756392123832,0.21250846956572644
1.476,0.20688162443905034,0.20669245814765747
1.48,0.19318468238013775,0.20173422914760564
1.484,0.1781315519648612,0.20080134583639175
1.488,0.1677771896923197,0.20432437197750764
1.492,0.16529808243455402,0.20903180431966484
1.496,0.1695006467148974,0.2117148738348038
1.5,0.17676375891724905,0.21282897334721307
1.504,0.1836762559179348,0.21528873324142128
1.508,0.18695767461449675,0.21938454740065239
1.512,0.18281136815928734,0.21938179420116044
1.516,0.16796376777412925,0.20630113266425543
1.52,0.1418891409642753,0.1760243964363084
1.524,0.10919384889534545,0.13514529521503071
1.528,0.0792721843440749,0.09750349754116128
1.532,0.062198716949218635,0.07537960584413494
1.536,0.06475140576627991,0.07489557219450815
1.54,0.08887837067990478,0.09709492679364629
1.544,0.13125213597833496,0.13928521647810088
1.548,0.18437108999310947,0.19497178188878106
1.552,0.23999988520032978,0.25453367684518
1.556,0.29133843004824245,0.307423816607832
1.56,0.331455227988124,0.34488027354745365
1.564,0.3518868925303722,0.3613675002882204
1.568,0.3454539190837844,0.353979529172914
1.572,0.31114369685226295,0.3221209331264323
1.576,0.2555205741257316,0.2697140697965337
1.58,0.190155108197118,0.20658240650030657
1.584,0.1281713422056059,0.1454592751509327
1.588,0.08008079135595425,0.0980974976480633
1.592,0.051266686948192364,0.07375014332786001
1.596,0.04379383026395578,0.07682357509560345
1.6,0.05782138985265517,0.10341609819614295
1.604,0.0896249431555467,0.14283091519687008
1.608,0.13027748549488538,0.18374265799567446
1.612,0.16837944886291178,0.2176406775857318
1.616,0.1960628532065225,0.23896540095839724
1.62,0.21270019055901512,0.24679469413644095
1.624,0.22234525053611365,0.24585942615450773
1.6280000000000001,0.22856343768310095,0.24225395921383974
1.6320000000000001,0.23130134093028687,0.23819100417191286
1.6360000000000001,0.22819329192914717,0.23255203448082273
1.6400000000000001,0.21948132916079932,0.22520246209030748
1.6440000000000001,0.21039249093831924,0.21862720920148582
1.6480000000000001,0.20783906482110281,0.2165052482811356
1.6520000000000001,0.21646682277187712,0.22262429116939764
1.6560000000000001,0.23776613743321184,0.24041419707139533
1.6600000000000001,0.269846226199437,0.27123321026449676
1.6640000000000001,0.30585294729578827,0.31008451654617497
1.668,0.3310850028896193,0.34118087683121456
1.672,0.32142171658950147,0.33902970367205265
1.676,0.24924226353431256,0.27650071878957805
1.68,0.09890244413430582,0.13750602030073922
1.684,-0.11205223417474863,-0.06413894464383985
1.688,-0.3180249738098859,-0.2674682953338027
1.692,-0.42160894906978175,-0.37703708831870675
1.696,-0.34539629628009116,-0.31274375607124283
1.7,-0.08086547151577683,-0.05918864195801088
1.704,0.30134654193191657,0.31975480672914824
1.708,0.6782274364853749,0.7024040422710904
1.712,0.9205285461525101,0.9540680800380581
1.716,0.9422866156478584,0.9804821666324453
1.72,0.73600529391466,0.768702648959829
1.724,0.37646785832987417,0.3940286705828795
1.728,-0.010567400399243754,-0.011535039913276757
1.732,-0.2998785397233166,-0.31362800597990204
1.736,-0.41424088890855526,-0.42845950292515145
1.74,-0.34917509289381077,-0.352218529206775
1.744,-0.16644478839127974,-0.15308903068461144
1.748,0.04298099243590814,0.07179263874573416
1.752,0.20668891854378346,0.2468605209244743
1.756,0.2970933188160838,0.34218809018709595
1.76,0.3248964461652051,0.36634412330224886
1.764,0.31666258537726977,0.3466797852199879
1.768,0.2960201723631455,0.31157620930852503
1.772,0.2757040132970707,0.2808917550970258
1.776,0.2590491606289549,0.2644340973750845
1.78,0.24589400561286734,0.2633812520260972
1.784,0.23681911047362503,0.2721517982043409
1.788,0.23347104005251063,0.2819284049211741
1.792,0.23679181734970367,0.2858282051300083
1.796,0.24522341193637076,0.28272195772653985
1.8,0.2553494213181411,0.2766198773255557
1.804,0.26442342856686873,0.27274401417494
1.808,0.27034465922523054,0.27363672940072137
1.812,0.2698549238866568,0.27689420580035984
1.816,0.25926750403541665,0.2759256764460374
1.82,0.2366474002193908,0.2639269296490263
1.824,0.20299393781147357,0.23782716975784624
1.828,0.16200671820063217,0.1989619626859369
1.832,0.11837294442793755,0.15127989669011255
1.836,0.07644807998402214,0.1004613330877091
1.84,0.04061264491752148,0.05384932044197521
1.844,0.015202793339390785,0.01863801387073205
1.848,0.0024619907859873003,-0.0011389500806368025
1.852,0.0009603613583615278,-0.0061444441738121025
1.856,0.0066699475836442534,-6.067127240161341e-06
1.86,0.015744071720215524,0.014053549642136565
1.864,0.027493258341904747,0.03460472165867956
1.868,0.04474558735788592,0.06105419217323882
1.872,0.0705597444629118,0.09284393415670267
1.8760000000000001,0.10520367525910235,0.1296336172801038
1.8800000000000001,0.14590975203011358,0.17107964455984326
1.8840000000000001,0.18850404046530023,0.2158550899207603
1.8880000000000001,0.22965406656194753,0.2611883883489079
1.8920000000000001,0.2677575279413691,0.3036383798954112
1.8960000000000001,0.30167545317497324,0.3402513784628618
1.9000000000000001,0.32954343411653464,0.36936871341151223
1.9040000000000001,0.3495483358945448,0.39056968363887723
1.9080000000000001,0.3614393217924803,0.40340483197020793
1.9120000000000001,0.3661628085448878,0.4071148082196854
1.9160000000000001,0.36432252515817254,0.4019995483958172
1.92,0.35621811201648623,0.3900194545012803
1.924,0.3424325549824363,0.3739609352628035
1.928,0.32314533362605435,0.3554745289615666
1.932,0.29806640139611806,0.3333521394865271
1.936,0.2678002469460008,0.3047562900568961
1.94,0.23419888160804003,0.26839824548217894
1.944,0.19924937541802734,0.22565178425798038
1.948,0.1642601934512733,0.17966559309839347
1.952,0.13037434380361668,0.1349143046044936
1.956,0.09941622799065852,0.09601777071460349
1.96,0.07283257270625287,0.06546276102658122
1.964,0.050432426583197465,0.04320405762529633
1.968,0.03197665009425488,0.028493389378334788
1.972,0.01880716233227564,0.021109544531794366
1.976,0.01275330699275723,0.02062409996187653
1.98,0.014784268345587659,0.026050704496744626
1.984,0.024827412374768265,0.03783181498287913
1.988,0.04234010900553664,0.05872184882782672
1.992,0.06750747305422111,0.09112005067737328
1.996,0.10065770238267402,0.1341677552401963
2.0,0.13954104375667775,0.18264473958787586
2.004,0.17841499994113663,0.22776498356058217
2.008,0.21038016302411577,0.26068852893387295
2.012,0.2308421515205068,0.2767478308165825
2.016,0.239413360643848,0.2772564917080731
2.02,0.23917914051214795,0.2681878371047308
2.024,0.23481966366041007,0.2565088267468787
2.028,0.23065222394524953,0.24645118433287783
2.032,0.22901237140301034,0.23864391226509096
2.036,0.23039344656389105,0.2321771209161263
2.04,0.234499389707304,0.22674719343679528
2.044,0.23970038045673547,0.22315359383523092
2.048,0.2420778349927173,0.22218397398362466
2.052,0.2370898094457503,0.22327275850662898
2.056,0.22311443042613543,0.225167293918908
2.06,0.20308183901711097,0.22751936245223048
2.064,0.18261458272049302,0.23009698296484693
2.068,0.1665575438092124,0.23042685151168962
2.072,0.15691297334919407,0.2247648853548594
2.076,0.15349813607243434,0.21276942182562975
2.08,0.15514540699440804,0.199125937559665
2.084,0.15998429619598498,0.1896696625536498
2.088,0.1658900371374339,0.18721147255022474
2.092,0.17092486847140265,0.1904651027253772
2.096,0.17365692075846728,0.19567606432008633
2.1,0.17441171214074846,0.19904177649043708
2.104,0.17585522248142182,0.1981258166954405
2.108,0.18044301208550406,0.19302571189413453
2.112,0.1870903343056729,0.1868935313996789
2.116,0.19132010879865136,0.18376072757699102
2.12,0.18930330824814967,0.18578236997072395
2.124,0.18193675990924452,0.19274241304787143
2.128,0.17390892583462225,0.20235297181328726
2.132,0.1692068124353694,0.21060663398659396
2.136,0.16908000612759833,0.2136285380350893
2.14,0.1723805776124352,0.20979815521747813
2.144,0.17636811503155791,0.2003658574047673
2.148,0.17889550194901638,0.18929173846369496
2.152,0.18007548167423426,0.18195044041274633
2.156,0.18155195066779517,0.18189242776966297
2.16,0.18445130326653825,0.18822268735369363
2.164,0.18740182414677786,0.19651756256757125
2.168,0.18726994377309603,0.20234726788469048
2.172,0.18241983198736866,0.20400586907391371
2.176,0.1742129950352651,0.20237551890427818
2.18,0.16586690837405405,0.19911762655996768
2.184,0.16049182394440087,0.19573092846859708
2.188,0.1595473442880544,0.19363905147402805
2.192,0.1626626526488817,0.19370402935812914
2.196,0.1683886778670891,0.19598176648600107
2.2,0.17517857891545985,0.20044078259509424
2.204,0.18172923579621258,0.20635202310492784
2.208,0.18608688711534782,0.21132482606356762
2.212,0.1858510083879561,0.21298878141915223
2.216,0.18063112686507132,0.21107111878296103
2.22,0.17302946534214225,0.20686617947578156
2.224,0.1665615540831742,0.2017697783481831
2.228,0.1637946136884525,0.1974074439609519
2.232,0.16576422651417322,0.19625420426597517
2.236,0.17155147283961836,0.19985904394344445
2.24,0.17875425971062087,0.20635858717519873
2.244,0.1845765331051903,0.21146575291039738
2.248,0.18634931220481166,0.21138876568267917
2.2520000000000002,0.18255961947752275,0.20474915240214586
2.2560000000000002,0.17467505828217034,0.1936542372006138
2.2600000000000002,0.1676111773851312,0.18279310014384476
2.2640000000000002,0.16725457648245756,0.1762606797086066
2.2680000000000002,0.17579992198705297,0.17525285743431707
2.2720000000000002,0.1889380308643136,0.17884074424472352
2.2760000000000002,0.19875024138056663,0.1856783766933403
2.2800000000000002,0.1998493522686715,0.19411257239958002
2.2840000000000003,0.1930243070894,0.20203137737061816
2.2880000000000003,0.18418191671025386,0.20790735624836065
2.2920000000000003,0.17980617022179524,0.2117029376764985
2.2960000000000003,0.18236149793818357,0.21425503999015794
2.3000000000000003,0.189092398372396,0.2160303248717843
2.3040000000000003,0.19437402160401107,0.21667547619810823
2.308,0.19383104629875558,0.2153926582521537
2.312,0.1875121454544879,0.2116455550707652
2.316,0.17939084677491302,0.20610297508664632
2.32,0.17374784734939142,0.2013579789283504
2.324,0.17211328692418038,0.2005137710295377
2.328,0.17328560681686977,0.203983448975523
2.332,0.17538720769849458,0.20875447822148785
2.336,0.17765850076388512,0.2113597236507727
2.34,0.1804653894100241,0.2108228546764359
2.344,0.18403478862391687,0.20868477679710784
2.348,0.1882581017616074,0.2067390597511971
2.352,0.19373005911345187,0.20556393079785185
2.356,0.20150670250349156,0.20574393351283526
2.36,0.2107090029021892,0.20843017134136455
2.364,0.2165094378637562,0.21243745217103038
2.368,0.21145935410155436,0.21224944374282417
2.372,0.18990783104558817,0.2007815414430958
2.376,0.15252230867411565,0.1747169784053093
2.38,0.1073955576301564,0.13833156957860204
2.384,0.06623126174657368,0.10255137034381501
2.388,0.03951116719781678,0.0797621537695099
2.392,0.03467275944359138,0.07850604512233628
2.396,0.05539625377623514,0.10082431936065683
2.4,0.10027164040340009,0.14253076578267931
2.404,0.16208798431019855,0.19556843687459757
2.408,0.22896369935336947,0.25085721308053044
2.412,0.28740606810358216,0.3006793007284849
2.416,0.3260191131374748,0.3394973897508533
2.42,0.33915829816868337,0.36263944805458403
2.424,0.3283791091949857,0.3657975498254942
2.428,0.29926099839626974,0.3465246133175208
2.432,0.2572163620379031,0.30517257670030684
2.436,0.20682789935340185,0.24586555586216297
2.44,0.15377013982481946,0.17856107211335748
2.444,0.10545201916431979,0.11783099045206047
2.448,0.06891640729099158,0.07643856268155003
2.452,0.04963538949004653,0.06072008198093193
2.456,0.05234493359443926,0.07137136696024404
2.46,0.07872856216382251,0.10392590104650123
2.464,0.12244286890726142,0.14791468347950643
2.468,0.16961720065085562,0.1897997803095317
2.472,0.20640117491310717,0.21869842130137163
2.476,0.2262654770467707,0.23024221122576205
2.48,0.23149547796769943,0.22772181225779264
2.484,0.22949844169401734,0.21970948418990588
2.488,0.22742927477992314,0.21390497401729958
2.492,0.2283974549529122,0.2128903832803577
2.496,0.23126394100769576,0.2161042085039242
2.5,0.23338032421260713,0.22350320156339154
2.504,0.23317877758743033,0.23560918438893608
2.508,0.2318293822455333,0.2522463603569045
2.512,0.2344078602006039,0.2733712778851938
2.516,0.2474412382891693,0.29959354321997567
2.52,0.27228975747192763,0.32940642477499904
2.524,0.2990209719467316,0.35391239797653506
2.528,0.30454932065851126,0.3529686251477677
2.532,0.2580663588962575,0.29881515489252974
2.536,0.1359488821671868,0.17059927762435723
2.54,-0.05610009981507513,-0.023973415630056283
2.544,-0.2655151363075371,-0.23240410537807532
2.548,-0.40150949336041264,-0.36653283913298784
2.552,-0.3773244635071805,-0.34319222569625973
2.556,-0.16046965003893887,-0.13148703614268364
2.56,0.20256739730391238,0.2235551147684951
2.564,0.5992321002050116,0.6119117761285022
2.568,0.893548062316674,0.8993905729294189
2.572,0.9796942341231709,0.9815981980793314
2.576,0.8244580034530424,0.8269884036118547
2.58,0.4819215541540054,0.4900098935900623
2.584,0.07281784325086793,0.0895220233352596
2.588,-0.2649387681624038,-0.23882102061649313
2.592,-0.43188538252675823,-0.39709247487320565
2.596,-0.4033506514544646,-0.36265657937087337
2.6,-0.23124253435632824,-0.1902745207423564
2.604,-0.009432717252703782,0.02482895036220434
2.608,0.1777411749419704,0.2006261761879129
2.612,0.28925632222320363,0.30091943451763137
2.616,0.32761802890893454,0.3319576825300823
2.62,0.31914503223613533,0.32121886904576247
2.624,0.2928547065527194,0.29828336357513474
2.628,0.2677686039513236,0.2827455999787094
2.632,0.251157257586752,0.28008680555870136
2.636,0.24365393573151817,0.2854653460893859
2.64,0.2437937982843439,0.2904451711477083
2.644,0.24845130889793965,0.2883095984297621
2.648,0.25283713517298123,0.2779381227640707
2.652,0.2532413644676954,0.26506946277634347
2.656,0.2500379176294145,0.25811352214629557
2.66,0.24698192652195994,0.2615480387436009
2.664,0.24703417326674182,0.27327326046110856
2.668,0.24935071145516519,0.28584710738169994
2.672,0.24942703400468869,0.2889549322663938
2.676,0.24176891928282962,0.2744300376338824
2.68,0.22334509681812653,0.24161252165025737
2.684,0.1940500149328337,0.19680557808138022
2.688,0.1558487478627526,0.14819518017382127
2.692,0.11319049870491149,0.10250121385895028
2.696,0.07169322048749338,0.06459084430122908
2.7,0.03614941978653663,0.03746439954976255
2.704,0.010530450968887495,0.02124532072245655
2.708,-0.0027388726503603245,0.013307620497838846
2.712,-0.004531594880213929,0.011173245724631853
2.716,0.0018723076894984203,0.015194099001606842
2.72,0.01407625004071944,0.0282999441972418
2.724,0.03238014615704743,0.05335329604939587
2.728,0.05861470355246978,0.09002175312554916
2.732,0.09367001849295353,0.13412463133307018
2.736,0.1358106407485633,0.18020197743907973
2.74,0.18093369943153426,0.22397809538572844
2.744,0.22420857736666977,0.2627813792778291
2.748,0.2619486832057598,0.2956236746889884
2.7520000000000002,0.2929932234066852,0.32332908343607314
2.7560000000000002,0.3181546518975198,0.34744923224607804
2.7600000000000002,0.33788085135761636,0.3686681941418295
2.7640000000000002,0.35164845960810687,0.3858796600975598
2.7680000000000002,0.35962971970453506,0.39676846825225853
2.7720000000000002,0.3626781919991324,0.39978407040944597
2.7760000000000002,0.3604211462219171,0.39497137113370706
2.7800000000000002,0.35085866157979684,0.38317434652145854
2.7840000000000003,0.3323343403456811,0.36514705203416553
2.7880000000000003,0.30569315889472515,0.34062604879718883
2.7920000000000003,0.2741207281968563,0.30855714886776275
2.7960000000000003,0.24122945272487328,0.26901785130018574
2.8000000000000003,0.20965577978033045,0.22449895100810036
2.8040000000000003,0.18033497477441407,0.17929371983461184
2.8080000000000003,0.15198631469622859,0.1375667068540829
2.8120000000000003,0.12221986445665411,0.10159726248354572
2.816,0.09071780247742112,0.07196427188621146
2.82,0.06074778170033812,0.04889488107634521
2.824,0.03626438953016553,0.03265151474957606
2.828,0.018400481228251442,0.023593169212354548
2.832,0.006309427050478655,0.022461671100460823
2.836,0.0007014475971904854,0.029327014822057906
2.84,0.0046061703535220655,0.04300570493983935
2.844,0.020773169003088565,0.06278769775484139
2.848,0.049699263219162626,0.08893262019751091
2.852,0.08958233695832551,0.1209069014169768
2.856,0.13605970353853958,0.15693476745968638
2.86,0.18176177506759017,0.19458760068430725
2.864,0.21829313785753413,0.2295025601752052
2.868,0.2402499485490197,0.25514314831903984
2.872,0.24764696281747356,0.26720907062933263
2.876,0.24478288749353472,0.2676219162606752
2.88,0.23719975046090092,0.26308787707454884
2.884,0.22910694762459038,0.26019982810254905
2.888,0.2219507255158173,0.26081920223147903
2.892,0.21507509002958414,0.26214256946318093
2.896,0.20842764209963627,0.26142286313929897
2.9,0.2039376434016329,0.25834417912958973
2.904,0.2034721066167131,0.25301668606030203
2.908,0.20604310341288223,0.2450710646091514
2.912,0.20809703577351635,0.2349529256930305
2.916,0.2066109485454466,0.22370076119286142
2.92,0.20135901475551865,0.21178591327560414
2.924,0.19475060826292023,0.19969703323661592
2.928,0.18984666672298012,0.1890586944539996
2.932,0.18803903919651588,0.1823797503218112
2.936,0.18864454156269006,0.18186294910183243
2.94,0.1896295362343774,0.1876613565694818
2.944,0.188194760969997,0.19681529040343704
2.948,0.1828782499538193,0.20487802928957044
2.952,0.17550705094486752,0.20847012345688065
2.956,0.16965217799848986,0.20622454951868519
2.96,0.16772324610247846,0.19874719485389147
2.964,0.17025848103363805,0.18864341189416622
2.968,0.17638576441155007,0.1802927807319703
2.972,0.1830896102104902,0.1781763408102255
2.976,0.18551563062677245,0.18425906115494284
2.98,0.18074259163731066,0.19681826621696685
2.984,0.1709364815537262,0.21130773006723746
2.988,0.1616362410936012,0.2221778285888456
2.992,0.15743241787689177,0.22524535429860126
2.996,0.15920272151993053,0.21951866135734166
3.0,0.16425989215118064,0.20677756842725992
3.004,0.1689072324959504,0.19013919272841173
3.008,0.1717339199132164,0.17364365828861672
3.012,0.1744194248417532,0.1617312847618384
3.016,0.17911517826194,0.15800233228953342
3.02,0.18597799285712724,0.16455733228941094
3.024,0.19260104270474354,0.1813783172128245
3.028,0.19484722110842223,0.2050090258587749
3.032,0.19009481909163206,0.2281632867275607
3.036,0.18021320851426248,0.2423469266058489
3.04,0.16992406839180751,0.24249662110907666
3.044,0.1627767022812583,0.2295696413252657
3.048,0.15961323399631167,0.2092667864285136
3.052,0.15984728381527624,0.18888575685557196
3.056,0.16253587941480485,0.1746968299243996
3.06,0.16691050122833295,0.17014756004083664
3.064,0.1731067551168597,0.17456746627261976
3.068,0.18089890823494792,0.18378562120054287
3.072,0.1881754327454006,0.1926553094176764
3.076,0.19268823810871627,0.1975955568924841
3.08,0.1935813375105504,0.19821744388370854
3.084,0.1908419345429666,0.19660757127288164
3.088,0.18595833355993863,0.19464395855023264
3.092,0.1822071851388285,0.19302463998314034
3.096,0.18184667244504515,0.19256088245456793
3.1,0.18409561183890344,0.19427471224198034
3.104,0.18671166106854442,0.19804847679176207
3.108,0.18770994274934893,0.2024590113319764
3.112,0.1856427777658196,0.20565228670635727
3.116,0.18039825686796807,0.206681824348254
3.12,0.17341053557102848,0.20645980264954877
3.124,0.16639657383690554,0.20660754331795061
3.128,0.16108038981346606,0.20814280444992983
3.132,0.15921196988208686,0.21136837197338632
3.136,0.16123394808741898,0.21571761162361236
3.14,0.16585473749176627,0.21979184160222243
3.144,0.17138960296103556,0.22183659880499973
3.148,0.17697406620085676,0.2205467142931683
3.152,0.18241190250731631,0.21566186401191278
3.156,0.18732799431546954,0.20782342549034682
3.16,0.1912515449076031,0.1990013558391983
3.164,0.19386867416248088,0.19259379187494385
3.168,0.19407446886799185,0.1908746685956526
3.172,0.19017558374986998,0.1928989026943675
3.176,0.18256169767409092,0.1963295841912247
3.18,0.17471139346838327,0.20016827402765935
3.184,0.17038447788620426,0.2050278815870148
3.188,0.17085653680232227,0.21165847857364173
3.192,0.17504458818013502,0.21907214650238416
3.196,0.18154825256756668,0.22413353734461539
3.2,0.1899649884384329,0.22425855039613118
3.204,0.19945833054391415,0.21998686539632728
3.208,0.20729215778106136,0.21439201876451075
3.212,0.21094358405799185,0.2114434891629664
3.216,0.2106276914867189,0.213391948688896
3.22,0.20790976622333313,0.21703425212281235
3.224,0.2024972874626334,0.21423383180673872
3.228,0.1911106908032354,0.19776781177777836
3.232,0.16938191865524477,0.16619654509410875
3.236,0.13596964253504962,0.1248561256460956
3.24,0.09624188452360194,0.08418950517146317
3.244,0.061917835630145746,0.056069174697978674
3.248,0.0461853618566872,0.049839729470543936
3.2520000000000002,0.05752660433778645,0.069792436289013
3.2560000000000002,0.09610497737216361,0.11407117951607093
3.2600000000000002,0.15377329393682304,0.17543213754580167
3.2640000000000002,0.21655747852414864,0.24323079760310717
3.2680000000000002,0.26970337709713665,0.30511979976554193
3.2720000000000002,0.3032945623479888,0.34948127658631
3.2760000000000002,0.3143010598617406,0.36885424900686337
3.2800000000000002,0.3053403702230886,0.36159387089201944
3.2840000000000003,0.28179945419110153,0.3306997961679363
3.2880000000000003,0.24821313087377272,0.28203467611176913
3.2920000000000003,0.20729435722212264,0.2241306473769693
3.2960000000000003,0.16211332629707997,0.16787216755718193
3.3000000000000003,0.11787052789386299,0.12316317110972363
3.3040000000000003,0.08199386298570466,0.09567805687015518
3.3080000000000003,0.06253540157002302,0.08778705549633337
3.3120000000000003,0.06468557950869935,0.10051145526829264
3.3160000000000003,0.08773836150335201,0.13204968489007918
3.3200000000000003,0.12493058391108236,0.1747180335653895
3.3240000000000003,0.1654448711124632,0.21541468116035833
3.3280000000000003,0.19810931913809982,0.24188285225600326
3.332,0.21686632955878937,0.25075922157650465
3.336,0.22333092143783184,0.24861155261041046
3.34,0.22252943505729195,0.243787603928856
3.344,0.21772743652720972,0.23924266779694592
3.348,0.21098185006425618,0.23380914324500157
3.352,0.20598349419764594,0.22653028013824805
3.356,0.20685386352083057,0.2186612198489235
3.36,0.21452203637031286,0.21430621814470352
3.364,0.22714204430189433,0.2193788255308824
3.368,0.24413611084671372,0.23842480170863634
3.372,0.2675160508805976,0.271456774788676
3.376,0.29813799949621456,0.3121442518271591
3.38,0.3292180478205482,0.346955328517796
3.384,0.34134976167391473,0.35497584639422675
3.388,0.30480363740177374,0.3104422872683441
3.392,0.19276785395442064,0.19221927693715002
3.396,0.0031738706441106768,0.0024334041402638285
3.4,-0.22126932547656952,-0.2147435394876811
3.404,-0.394776790856998,-0.37589366737380425
3.408,-0.42464429968068873,-0.39319695616733996
3.412,-0.2621984298109713,-0.22131474391105477
3.416,0.06681730765618821,0.11323157454082744
3.42,0.4666337117462229,0.5142942539665549
3.424,0.8045064807707336,0.8491224174992464
3.428,0.9611201547461918,0.9998662596293089
3.432,0.8796159066520073,0.9117605429785465
3.436,0.5900320960819123,0.615910040734982
3.44,0.1967435268458555,0.21655175527196024
3.444,-0.16435045777225255,-0.15014175780070005
3.448,-0.3790240843816113,-0.3689098948881483
3.452,-0.39813452744750744,-0.3899981579943076
3.456,-0.2540555104328188,-0.24549042152744016
3.46,-0.037031832966543665,-0.02549977258824998
3.464,0.15885621594244514,0.17551247379542012
3.468,0.28067882350241824,0.30459465235767325
3.472,0.3237057482775376,0.35724083289412456
3.476,0.3122752976805492,0.35605671964244223
3.48,0.27822825165048926,0.32897857026915744
3.484,0.24639082950899427,0.2973612881231882
3.488,0.22850371835276428,0.271916520350419
3.492,0.22509869126939375,0.2549485847721129
3.496,0.23152235965279955,0.24590513535052283
3.5,0.24237013200766055,0.24426124103047342
3.504,0.25307307471106255,0.2484835143064994
3.508,0.26100000612533747,0.2556762860820303
3.512,0.2657084143236428,0.26314359989132674
3.516,0.26758938074772787,0.2696088224972266
3.52,0.266264655202032,0.27540457338995106
3.524,0.25994179962985253,0.2806501824822827
3.528,0.24646101878419935,0.2822431478424836
3.532,0.22508072714824867,0.2744416014607398
3.536,0.19729042874432734,0.2536176619377417
3.54,0.16629246934931663,0.22118130061711416
3.544,0.13550118874810813,0.1816266717408379
3.548,0.106861647672428,0.13929472997603076
3.552,0.08032285976530162,0.09751414496011401
3.556,0.05585322889374411,0.0593941778373166
3.56,0.035491286971041536,0.02820284859263178
3.564,0.021586903582722528,0.007248651648510407
3.568,0.014752478572034322,-0.0006749787780742089
3.572,0.015612893893387714,0.005475403851687988
3.576,0.026093864456679938,0.024254578192553833
3.58,0.04704195664659805,0.0520368791371435
3.584,0.07601426613407192,0.0839781933596706
3.588,0.1082854768925019,0.11614048305155156
3.592,0.13986735645313453,0.14754201560116886
3.596,0.16947418470054787,0.1799742863951237
3.6,0.1978623746039856,0.21618715028766422
3.604,0.22586733759318878,0.257468313303856
3.608,0.2528859681858091,0.30157428153569077
3.612,0.2775979397623789,0.3430778174411231
3.616,0.3001931930375372,0.3761680508005787
3.62,0.3222276240310189,0.397740694673844
3.624,0.34366023328519457,0.4087021797250632
3.628,0.36110088971320353,0.41179509718472707
3.632,0.36982703843823095,0.40809913735086356
3.636,0.36689472336058526,0.3966163645516456
3.64,0.35233779650466657,0.37624736795208125
3.644,0.32918338311161977,0.34730148710471465
3.648,0.3020536651715673,0.31169480589179765
3.652,0.27399921430652174,0.27195483857453295
3.656,0.2447833182426531,0.23079689930213565
3.66,0.2124371909314453,0.19150864421784575
3.664,0.17540405441542428,0.15647282026737996
3.668,0.13351300213704298,0.12497080854150933
3.672,0.08888795826332219,0.09498527192280881
3.676,0.046288850646632795,0.06718824608392282
3.68,0.011662047595305092,0.04445069441153904
3.684,-0.010279889391135333,0.028646863806556455
3.688,-0.01794433249716787,0.020619623261679543
3.692,-0.012772621965709052,0.0211499146223173
3.696,0.002864361762366485,0.030190254531562433
3.7,0.027270990569252973,0.04694786742408663
3.704,0.058991063705192026,0.07166636338386412
3.708,0.09617857564704813,0.10636849172021035
3.712,0.13635252339920845,0.1518784310018948
3.716,0.17566428803406509,0.20326877131013155
3.72,0.20929440599601246,0.2500718209894268
3.724,0.23305985423538367,0.28191322235558514
3.728,0.24435162081902373,0.29396244814190053
3.732,0.2433988617423939,0.28893496368577276
3.736,0.2343847461264441,0.27474208828932944
3.74,0.2234527237041839,0.2590117402956933
3.744,0.21526210773488752,0.2453522336221159
3.748,0.211432315221028,0.2340749501239079
3.7520000000000002,0.21107117290879351,0.22501005249316153
3.7560000000000002,0.2120816623184394,0.21885423106352886
3.7600000000000002,0.21195106102890104,0.2162670758360632
3.7640000000000002,0.2088586929559404,0.21677292730956155
3.7680000000000002,0.20359026735168406,0.21857128338817033
3.7720000000000002,0.19952008357839035,0.21912940881034926
3.7760000000000002,0.19930414021069454,0.2165477671432121
3.7800000000000002,0.20170021846041375,0.21086105461762772
3.7840000000000003,0.20278338320925382,0.20418716752750732
3.7880000000000003,0.2001620023757511,0.199336829816241
3.7920000000000003,0.1948587062857423,0.19785622606623532
3.7960000000000003,0.18969285476300857,0.19907030990915286
3.8000000000000003,0.18684238099506434,0.20052389636073698
3.8040000000000003,0.18630617676667693,0.19966698241192016
3.8080000000000003,0.18606414555840023,0.19585243384083406
3.8120000000000003,0.18385513151194144,0.19092746894307067
3.8160000000000003,0.1789744412778076,0.1882413221363315
3.8200000000000003,0.17259949474086245,0.19048105721923703
3.8240000000000003,0.16662085127176085,0.19681567358316143
3.8280000000000003,0.16208853787106814,0.20280485483417854
3.8320000000000003,0.158991250559799,0.2044535101728009
3.8360000000000003,0.1576397194850201,0.20115746238525434
3.84,0.15960413388655792,0.1950011744226936
3.844,0.16633014847407823,0.18923411035900384
3.848,0.1762247211201744,0.18672195727729424
3.852,0.1843098015602691,0.18864021878330317
3.856,0.1863806796172911,0.19436194878224877
3.86,0.18290515840878308,0.2015410052713693
3.864,0.17758985505690328,0.2069288236350535
3.868,0.17302531425151124,0.20884956470563765
3.872,0.16949146581360552,0.20838296455033745
3.876,0.16656658984460848,0.20785818711465076
3.88,0.16370631240680655,0.2086444567933543
3.884,0.16105009102546264,0.20980803157551176
3.888,0.16073353668690005,0.20932190810790718
3.892,0.16486528368043007,0.20658693654180516
3.896,0.17207015564703054,0.20272648113208036
3.9,0.1785849811356357,0.19923508147344027
3.904,0.18245163530934194,0.1968603106736273
3.908,0.18488057304125816,0.1955502019327786
3.912,0.18797610309995183,0.19579175385670866
3.916,0.1919673307714571,0.19845059484832261
3.92,0.19467277303606378,0.2023838646086462
3.924,0.19351670094068618,0.20436358168865265
3.928,0.18768402195286837,0.20206106251425138
3.932,0.17864136237177441,0.19582261952214886
3.936,0.16957035050473235,0.1880073899138741
3.94,0.16417479244476696,0.18169246347432932
3.944,0.16457227349788095,0.17915985403035362
3.948,0.16989385738577156,0.18067736371669763
3.952,0.17732854366294193,0.18524069691695
3.956,0.18380810175545093,0.192422732263678
3.96,0.1869557511107265,0.20204386009405573
3.964,0.1860651961981099,0.2121998541985639
3.968,0.1826440325955585,0.21960300094312912
3.972,0.17941139847931908,0.22182499484142015
3.976,0.1782802996265922,0.2184952246673706
3.98,0.1792769085478667,0.21124550666266506
3.984,0.1808921311830296,0.2023852986846537
3.988,0.18094692123200184,0.19377273908023485
3.992,0.17807670044052948,0.18800732561535227
3.996,0.1731175820552311,0.18828279796198322
4.0,0.1684789745407025,0.1950149507958554
4.0040000000000004,0.16634032477445015,0.2046646646859822
4.008,0.16832201656688572,0.21239935597955095
4.0120000000000005,0.17529647594654052,0.21492186633336496
4.016,0.18512293191750584,0.2118925782841803
4.0200000000000005,0.1924337676378578,0.20537710500725392
4.024,0.19296016426092644,0.19763441589416586
4.0280000000000005,0.18730657576713483,0.19036848973300868
4.032,0.18068230402652774,0.18537850029869563
4.0360000000000005,0.17879828608622161,0.18374190651933486
4.04,0.18255260374600324,0.1851751060933131
4.0440000000000005,0.18759578386058018,0.18888833819236317
4.048,0.18986760322353868,0.19414404907022598
4.0520000000000005,0.18964780563716466,0.20079764210918927
4.056,0.189588672212734,0.20960733979787616
4.0600000000000005,0.19123540991219845,0.2207347541189748
4.064,0.19464106934567882,0.23224195869746223
4.0680000000000005,0.1997270023376727,0.2410303614109437
4.072,0.20674459414216795,0.24433289178106543
4.0760000000000005,0.21443262507079575,0.24011831313144327
4.08,0.2173171114932848,0.22756625016925658
4.0840000000000005,0.20691291254367417,0.20718347076607313
4.088,0.17736831725797053,0.18023379638329295
4.0920000000000005,0.1311128002823292,0.14889014920649024
4.096,0.08038566062589347,0.11747345969251599
4.1,0.04187289725008436,0.0932462755383685
4.104,0.02772559882742831,0.08401263360570965
4.108,0.04090092603863438,0.09357743121820161
4.112,0.0770116030053869,0.12059469235887343
4.116,0.12848889702904942,0.16122028905032648
4.12,0.18706517208351436,0.21076328637306974
4.124,0.24451627636968665,0.26326966929537
4.128,0.293434388792549,0.31089866485026274
4.132,0.3274459216465573,0.344414180113211
4.136,0.34123019167972135,0.3556448015373477
4.14,0.3317297763003346,0.3406673212299245
4.144,0.2994300446014808,0.30170488364461767
4.148,0.2489241822233239,0.24722723379883327
4.152,0.18829359023449688,0.18973778655415008
4.156,0.12755661999591328,0.14114815021807603
4.16,0.07727665780619986,0.10857115437805631
4.164,0.04652859236985263,0.0937523784399501
4.168,0.04036037796490799,0.09520852300085081
4.172,0.0582839872317098,0.11050533293502074
4.176,0.09439976109835402,0.13702818819594542
4.18,0.13898085604714505,0.1700836100572951
4.184,0.18101193653964742,0.20191058249999227
4.188,0.21175803521755232,0.2256799599656263
4.192,0.2280147646670494,0.23922356065967398
4.196,0.23259581664807927,0.24350177186535382
4.2,0.23177639319580945,0.24077024438855443
4.204,0.23071358465103886,0.23518653812789148
4.208,0.2303064603204592,0.2315294748810781
4.212,0.22905196451647525,0.23242523164243312
4.216,0.22714594677487554,0.23794279109667982
4.22,0.22784289520870993,0.24671577208359508
4.224,0.23562155510842486,0.25775267042986205
4.228,0.25389434434671054,0.2725833223353533
4.232,0.28290870653441713,0.2938864902390068
4.236,0.31601952586504645,0.3193786031086554
4.24,0.33536169847512887,0.3350523408738204
4.244,0.31217356549251285,0.3137500703953291
4.248,0.21763103365354897,0.2256947306985524
4.252,0.04354586182622722,0.06058866388519579
4.256,-0.17794633327904996,-0.15129814217709636
4.26,-0.3712259258344798,-0.3360512409826035
4.264,-0.4421353871839202,-0.40199758119210716
4.268,-0.3248724899819341,-0.28608025982537155
4.272,-0.023442124181737745,0.007689322684944377
4.276,0.3792563309710171,0.40120927986883137
4.28,0.750836021951643,0.7684351411776995
4.284,0.9620713289457683,0.9822960382760233
4.288,0.9384109020972751,0.9650451105081126
4.292,0.689310093031354,0.7213748478190536
4.296,0.30375987318879716,0.33770449123876434
4.3,-0.08567030933887088,-0.05296058218290012
4.304,-0.3541756635877611,-0.3236518042954867
4.308,-0.4312022991000256,-0.401736392313904
4.312,-0.32606181123443967,-0.296054675504942
4.316,-0.11767276493863776,-0.08624275636278789
4.32,0.0946171206114681,0.12783598018467734
4.324,0.24441095787772094,0.2796096388242535
4.328,0.3149074924020796,0.35220862017627197
4.332,0.32362759602408353,0.3623679229854482
4.336,0.3008572088957733,0.3380855340070954
4.34,0.2727132941348036,0.30380215715658787
4.344,0.2525638891783957,0.2747196204905613
4.348,0.24171690710461147,0.2569940067480794
4.352,0.23616896665804932,0.2506252824162969
4.356,0.2336745526007491,0.2524712252409438
4.36,0.23529490306977618,0.25799571496590157
4.364,0.24199646303627342,0.2630980581153841
4.368,0.2521632937500924,0.2663642411959397
4.372,0.26243251490610287,0.26938765804632303
4.376,0.2695428073102475,0.2737426160386609
4.38,0.27108240640117853,0.27751969398126564
4.384,0.26485471045372977,0.275700624549428
4.388,0.24844502028593007,0.26332104657955746
4.392,0.22081012154382407,0.238116240397237
4.396,0.18457316026984172,0.20243235811355387
4.4,0.14554328827117713,0.16301446455041724
4.404,0.10927634466558955,0.12684806223880085
4.408,0.07879117361720489,0.0968725601690601
4.412,0.055096151836117935,0.07261501368190815
4.416,0.037979111069069926,0.05380622543066971
4.42,0.025839988072155373,0.04153250929125174
4.424,0.01641005980948429,0.03643818360829565
4.428,0.009405693274346039,0.03714544943997411
4.432,0.00832497685331135,0.041141021052876425
4.436,0.01853118545682575,0.0480814877190856
4.44,0.04325129790321314,0.06128562307321883
4.444,0.08117131404848044,0.08447359383712416
4.448,0.1266553917066564,0.11854020978842894
4.452,0.17204705755676564,0.16146324170912685
4.456,0.21186418732615753,0.20829511888247731
4.46,0.24541952678846135,0.2524389691718465
4.464,0.274535855423649,0.2898346546407411
4.468,0.30031610358906713,0.32088622779637777
4.472,0.3225550043558554,0.3480335398529528
4.476,0.33984445190284296,0.3726921772354821
4.48,0.35035538414018363,0.39360659819852795
4.484,0.3534344350913907,0.4072604921768297
4.488,0.3500159971150161,0.41084825007438286
4.492,0.3424902575051594,0.40468139041870743
4.496,0.33375473305413794,0.390634031738075
4.5,0.32433607558680677,0.3695993262637538
4.5040000000000004,0.31104347843258373,0.34177081050494995
4.508,0.28962965168016974,0.3076576654198371
4.5120000000000005,0.2582584259328007,0.26811544403681054
4.516,0.2184117633475806,0.22487674631479138
4.5200000000000005,0.1737653585663934,0.1807210528307508
4.524,0.12856723545023563,0.13831431028244645
4.5280000000000005,0.08645756526423254,0.099564040951309
4.532,0.05058315407373781,0.06621326280181417
4.5360000000000005,0.023422958512889558,0.040179528056389247
4.54,0.005341713687894822,0.02314432297276392
4.5440000000000005,-0.005224888089771618,0.016294794889774034
4.548,-0.008980694646215204,0.019544348318915716
4.5520000000000005,-0.004052045824025852,0.03052278281435039
4.556,0.012086914039795005,0.04595824390735892
4.5600000000000005,0.039699814570549385,0.06419462495339845
4.564,0.07621719901111046,0.08556262282834037
4.5680000000000005,0.11751603534332866,0.11178031220223716
4.572,0.1592359663877796,0.1455934383778812
4.5760000000000005,0.196888401714449,0.18804319687084314
4.58,0.22539399127304782,0.23411595879898472
4.5840000000000005,0.24105172763952987,0.2735139183944282
4.588,0.24500074538202155,0.29772819230637504
4.5920000000000005,0.24220310300703085,0.30453074312357997
4.596,0.23633088308663597,0.29657823398020233
4.6000000000000005,0.22829993655956082,0.2797006862869962
4.604,0.21901362639253286,0.26081824108799423
4.6080000000000005,0.21036701246375022,0.24419696491465492
4.612,0.20440427640502046,0.23064448937120074
4.616,0.20290026802030248,0.21991413881494104
4.62,0.20634517833127863,0.21185664593386
4.624,0.21274215022240517,0.206326495895653
4.628,0.21829617127023138,0.20377580126162775
4.632,0.21991323560179254,0.20484687503808252
4.636,0.21720150832190033,0.2087423059469793
4.64,0.21170489133775083,0.21364036321892388
4.644,0.20449972165226238,0.21845242766314854
4.648,0.19558170738251524,0.22263897784244313
4.652,0.18546853283402287,0.22512047233818366
4.656,0.17620568766156142,0.22432201531836027
4.66,0.17060438006010958,0.21922172735541778
4.664,0.17060294271046628,0.21036572422536715
4.668,0.17523862817547076,0.19960855490740426
4.672,0.18041337967154858,0.18908637823100438
4.676,0.18199054412006332,0.18044318809672366
4.68,0.17853126877733438,0.17461905818782442
4.684,0.1712428410585065,0.17220032235266602
4.688,0.1631658427126903,0.1738064902003873
4.692,0.15733157929080321,0.18010689001067548
4.696,0.1541963816570766,0.1902799057783866
4.7,0.1524385624442477,0.2002658905995125
4.704,0.1521439254479786,0.20540655969469146
4.708,0.15523269808393003,0.2054982181381224
4.712,0.16282736617500482,0.20495823030796023
4.716,0.17325221971948834,0.2077000594029521
4.72,0.18274961669769718,0.2128328706768461
4.724,0.1875558703316147,0.2152758170018374
4.728,0.18600012016539802,0.21034419900665013
4.732,0.17978637944756626,0.19808332952254437
4.736,0.17242270127238246,0.18369034024593378
4.74,0.16648880471563032,0.1742201771923766
4.744,0.1635623371860344,0.17418240673414553
4.748,0.16495990804924632,0.1824893620182002
4.752,0.17087589590978025,0.19321112063146995
4.756,0.18004630258567822,0.2001199915687255
4.76,0.19026295184058428,0.2009532472476947
4.764,0.19835425810314145,0.1977600521763454
4.768,0.20103892189874162,0.19399707606402017
4.772,0.19753809957247914,0.19251212869636958
4.776,0.19098085555010802,0.1955143202677767
4.78,0.18545464493111208,0.2037003435779754
4.784,0.18227240531226396,0.21502668967332084
4.788,0.18130866806530732,0.22490256947957432
4.792,0.18356342401890324,0.22821359426695964
4.796,0.1887933117347742,0.22305391473636682
4.8,0.19302937574419832,0.21249532764312273
4.804,0.19184775099093798,0.20174282157722412
4.808,0.18484207939546837,0.19413357165958134
4.812,0.175538015511153,0.18981366554906964
4.816,0.16811205804366636,0.18711466315044056
4.82,0.16483187512808328,0.18464168245355572
4.824,0.16569681472712183,0.18198293998506054
4.828,0.16907409110158667,0.1794451454807966
4.832,0.172498006919666,0.17832769129645243
4.836,0.1738854952736515,0.18091775862113924
4.84,0.17246135290534448,0.1885804088227816
4.844,0.1690441222560648,0.1992228734381889
4.848,0.16615154784902608,0.2084008740219243
4.852,0.166421065091507,0.21332842820537712
4.856,0.16971567457800174,0.2142554117968969
4.86,0.17328407339833096,0.21306930478030828
4.864,0.1744348974867782,0.21198244019014068
4.868,0.1721385924150789,0.21249109350134265
4.872,0.16790533500873583,0.21462843436041368
4.876,0.16521276776160687,0.21683712495430996
4.88,0.1668347881004404,0.21696064496486955
4.884,0.1730797765679153,0.21460473751146325
4.888,0.18211213956885874,0.21190266778091593
4.892,0.1909365899311526,0.21093308629718321
4.896,0.19682707739044836,0.211214581439785
4.9,0.1987590582043921,0.21021830777640083
4.904,0.19786268280082986,0.20612296306173716
4.908,0.1970548255293758,0.19964351943824488
4.912,0.19905071712768274,0.19307555881323823
4.916,0.2040886380513729,0.1888600637695157
4.92,0.21071501429156325,0.1892714758673777
4.924,0.21713657378253304,0.19551465779776378
4.928,0.22079312035992005,0.20656739904417254
4.932,0.21900503375589175,0.21938176006517351
4.936,0.21039483627228384,0.229107283621661
4.94,0.1940371089719335,0.22873403001560177
4.944,0.16809351905133485,0.21095817777728065
4.948,0.1327016823039744,0.1742329137276466
4.952,0.09391706578879777,0.12781596855761013
4.956,0.06125580542554898,0.08777647791476118
4.96,0.04256997629888959,0.06728211926909267
4.964,0.04263466978236896,0.07199117808256861
4.968,0.06316751918788177,0.10140891949764619
4.972,0.10258530517323439,0.15001719718295758
4.976,0.15662334086327823,0.20837262204809304
4.98,0.21871067074428208,0.26609903925887424
4.984,0.27906320211394964,0.31393428507245025
4.988,0.32501405706940356,0.3443265034839609
4.992,0.34549281404744936,0.35283361416449077
4.996,0.33657501265738454,0.3393541781679812
5.0,0.30256411045358633,0.3074700256835452
5.0040000000000004,0.2526551087465869,0.26263738871548714
5.008,0.19691018336827382,0.21090766323105092
5.0120000000000005,0.14360776454497448,0.15901011276768506
5.016,0.0984780161068235,0.11478689811672504
5.0200000000000005,0.06656426445749197,0.08620926266534434
5.024,0.054225243892423336,0.07892575868300145
5.0280000000000005,0.0658342060900805,0.09407678670693942
5.032,0.0978377437882636,0.12729523240085183
5.0360000000000005,0.1391094048626642,0.1688304845640176
5.04,0.17767634695219625,0.20627302084683485
5.0440000000000005,0.20620006173096472,0.23058530437999702
5.048,0.22283513216666506,0.24062638400217917
5.0520000000000005,0.22949369314045476,0.24162126742304912
5.056,0.22962313143350954,0.24024602963837927
5.0600000000000005,0.22681628124129438,0.24062735075648867
5.064,0.2242256751963394,0.24337956108341063
5.0680000000000005,0.22345613902293993,0.24738062864944932
5.072,0.22384225205828434,0.2510428751603848
5.0760000000000005,0.22388977552659983,0.25266854626492674
5.08,0.22402907056376709,0.2522422740331869
5.0840000000000005,0.2278814201680206,0.25346857292869474
5.088,0.23982585311613835,0.2626057344865109
5.0920000000000005,0.2604141287706929,0.2829371785701651
5.096,0.2820282706380881,0.30713707912618426
5.1000000000000005,0.2853611914168457,0.31275645300123855
5.104,0.24154122709278014,0.26746762596712115
5.1080000000000005,0.1260360638640481,0.1462800385140064
5.112,-0.05708556869422954,-0.04430710763932344
5.1160000000000005,-0.25498006539867424,-0.24838136334277316
5.12,-0.37603299861188433,-0.37178667176645463
5.124,-0.33627788780103085,-0.32931294925222376
5.128,-0.10992190785217848,-0.09650812209507897
5.132,0.2502618820578262,0.2703860716908135
5.136,0.6297750785323646,0.6540843033788113
5.14,0.8958582487160502,0.9218351440377051
5.144,0.9507114027836967,0.9771890606629419
5.148,0.7728005930212745,0.7989938863088271
5.152,0.42614789803033415,0.45117505733997376
5.156,0.03286016008809067,0.056225803972606014
5.16,-0.27685543366115795,-0.25529491329842713
5.164,-0.41519311170925766,-0.39498817640243156
5.168,-0.36788111840433513,-0.3470402325741223
5.172,-0.19202351120246453,-0.1673297885151096
5.176,0.019792169810608717,0.05128457499025019
5.18,0.18924824001929497,0.2288373291228507
5.184,0.2839589354369241,0.3296108149166266
5.188,0.3141161767950187,0.3600323240417327
5.192,0.3083350588963083,0.34717307327854163
5.196,0.2921205392858781,0.3175516665475746
5.2,0.27832229393232577,0.28720665179781
5.204,0.26827468060218695,0.26309983229435074
5.208,0.25860337448721715,0.24769299378636633
5.212,0.2476296364673416,0.2413028731736906
5.216,0.23721942123523299,0.24312491648137424
5.22,0.2303157865698171,0.2516937295919186
5.224,0.2288215788606418,0.2642748940338411
5.228,0.23388071156470924,0.2771605309817655
5.232,0.24529674298687287,0.2875243261889453
5.236,0.25950467235537333,0.2930595895728454
5.24,0.2693829898742579,0.289730509503241
5.244,0.26676522533990776,0.2732572333127359
5.248,0.24652974401589356,0.24405886675839827
5.252,0.21012367651824548,0.20826667730187687
5.256,0.16481482046361973,0.17240037349712156
5.26,0.1190367689145524,0.13893603744951566
5.264,0.07882882331850682,0.10806279560149235
5.268,0.04775387666197228,0.08110431574572474
5.272,0.027662770835189976,0.060315742732300004
5.276,0.017728978306615906,0.046889577556544104
5.28,0.01429589526749786,0.04053295661626177
5.284,0.014141512189878247,0.04018345169836324
5.288,0.01761383261318117,0.04446099866802666
5.292,0.0278007675598535,0.05263450303010542
5.296,0.047102836479891996,0.06622604889337325
5.3,0.07454346693763636,0.08780490388893392
5.304,0.10651477893871242,0.11738835784420232
5.308,0.1404720373246966,0.1526394595525642
5.312,0.1765910222546727,0.19207277212195106
5.316,0.21552861371922516,0.23482285025039484
5.32,0.25568442161349525,0.278157676209996
5.324,0.29245125413619855,0.317962440661264
5.328,0.3205905774422373,0.35124497907044683
5.332,0.3381765544048385,0.3770002492991451
5.336,0.347641626890304,0.3955439526112243
5.34,0.3528843749724706,0.4071937785121549
5.344,0.35593816156804614,0.4107847689507069
5.348,0.3561220437696222,0.40486335698789055
5.352,0.351434826371402,0.390248567257544
5.356,0.3399502922459168,0.36897250655192204
5.36,0.31996487719138855,0.34184122084467483
5.364,0.29064986010627036,0.3085881984575676
5.368,0.25388954439067146,0.2694208485804994
5.372,0.21400766753182188,0.2260969725301909
5.376,0.17444098090740523,0.1811386839434599
5.38,0.13580932926303824,0.1364009545705811
5.384,0.09790702276436947,0.0938691772979332
5.388,0.06241871337530025,0.057168936030522755
5.392,0.032821087072673505,0.030516391205894333
5.396,0.01226810506791165,0.01589598408154047
5.4,0.0024856556871064583,0.011913363024362411
5.404,0.0038888671914669715,0.015404775052974218
5.408,0.01598056906236822,0.023942824189412182
5.412,0.037985211729053336,0.037533429104242844
5.416,0.0680443350664095,0.058279851162432283
5.42,0.10205480591316207,0.08826025307653818
5.424,0.1353516187618049,0.1274760952939542
5.428,0.16469972419972012,0.172333744895935
5.432,0.18769198374222018,0.21544088698999797
5.436,0.20234895667042374,0.24850022680789796
5.44,0.20884484081731824,0.2668931600216402
5.444,0.21073271773392577,0.2721069121091111
5.448,0.21279455872002728,0.26999862207485914
5.452,0.21711826434959147,0.2665118037708305
5.456,0.22235491516658623,0.26455817961835226
5.46,0.22632125965519134,0.2638512550420369
5.464,0.22759514301003358,0.26240499465396283
5.468,0.22548038042177998,0.2578742571914081
5.472,0.21991556834823522,0.24853086919531164
5.476,0.21177706166870824,0.2350347492949607
5.48,0.2034859303448726,0.22159895035474064
5.484,0.19802743812755996,0.21351039588601073
5.488,0.196399826737931,0.21275542160326544
5.492,0.19716989506684013,0.2166154828106912
5.496,0.19810605320673935,0.2201790017509706
5.5,0.19705605498490963,0.21955687153665648
5.5040000000000004,0.19277590747033346,0.2137510261163027
5.508,0.18583894064678885,0.20494642591203727
5.5120000000000005,0.17794405997594676,0.19661553775845197
5.516,0.17106387428257164,0.19088107522404418
5.5200000000000005,0.1669612610129736,0.1878549923637478
5.524,0.16578086037151052,0.18642712106363835
5.5280000000000005,0.16642520891900747,0.18520424105699673
5.532,0.1688581833893068,0.18389435368559726
5.5360000000000005,0.17345578366838743,0.18373333301520356
5.54,0.1785212834762353,0.18580293295164618
5.5440000000000005,0.18055143653214567,0.18995542784750286
5.548,0.17722373296534166,0.19534395306319485
5.5520000000000005,0.17048746955920935,0.20028480710807894
5.556,0.16571512334760552,0.20236115264963672
5.5600000000000005,0.16641569839523918,0.20003914001821932
5.564,0.17120557422269034,0.1939487301127205
5.5680000000000005,0.17651620198234408,0.1870933774899699
5.572,0.1802888488690073,0.18377016060027063
5.5760000000000005,0.1823641203215658,0.18693836116181983
5.58,0.18308256058017247,0.19611036109899804
5.5840000000000005,0.18279762372084307,0.20761233240441612
5.588,0.18177642071195832,0.21676386841306194
5.5920000000000005,0.17983737994689153,0.22026699283176598
5.596,0.17659158006083553,0.21739165825194906
5.6000000000000005,0.17239990336161704,0.2101122306305354
5.604,0.16916345232479357,0.20204643189046423
5.6080000000000005,0.16932419138154065,0.19613903226545748
5.612,0.1730860565191923,0.19332026103754707
5.6160000000000005,0.17775839597019938,0.19279463698785015
5.62,0.18077409409028378,0.1925774204474333
5.6240000000000006,0.18217676980556652,0.19073872577197326
5.628,0.183613019269119,0.187327418550711
5.632,0.18556006379260448,0.1851207228860985
5.636,0.18654015732868667,0.1876639945350611
5.64,0.1851367893784155,0.1956064872143073
5.644,0.18137429837272911,0.2057383044309682
5.648,0.17610747415349715,0.21399818341292276
5.652,0.17031592715247457,0.21793197197736647
5.656,0.16511996618321367,0.21676060371695693
5.66,0.16227424441808203,0.21139811896618532
5.664,0.16366527431140843,0.20420983006083593
5.668,0.16903142270922422,0.19712150618195778
5.672,0.17549060659510474,0.1901561653867494
5.676,0.18020983474251295,0.18275641655269026
5.68,0.18208988540777216,0.1763585422480165
5.684,0.1813730708627157,0.17458672286009125
5.688,0.1793392174249897,0.17970709506319205
5.692,0.17807715130945967,0.1894606479575116
5.696,0.17926602824406102,0.19940253536268915
5.7,0.18264420135619375,0.2075325808024433
5.704,0.18609410032831586,0.2143824744336933
5.708,0.1875655265238152,0.21998592530881367
5.712,0.1866062141493099,0.22331057789011566
5.716,0.18389411794003796,0.2237571405384946
5.72,0.18030492714338986,0.2213830230585665
5.724,0.17708915417774462,0.21635979539617467
5.728,0.1757647236472477,0.2092110110680827
5.732,0.17681703000140914,0.20125769575152552
5.736,0.17890896678578638,0.19451340036627784
5.74,0.18046698404872763,0.1909083088261121
5.744,0.1823575654513434,0.19158874426763828
5.748,0.18753876720003548,0.196751226473326
5.752,0.19682043265872617,0.20490013745255542
5.756,0.20599020618088715,0.21198501618731025
5.76,0.20884388312271418,0.213406660907981
5.764,0.20281536278429457,0.20836028516255323
5.768,0.1907111570409068,0.20097609679640582
5.772,0.17810675674104282,0.19668502654413356
5.776,0.170419588505055,0.19884128461928308
5.78,0.17083172078248254,0.2078364066096372
5.784,0.1786465292081334,0.2207398569961756
5.788,0.1895090903041845,0.2319231137720985
5.792,0.19765199074905504,0.23547843539059254
5.796,0.19759926429359487,0.227185509903709
5.8,0.18442357391351605,0.20495439981851793
5.804,0.15539465253379525,0.1701853717820352
5.808,0.11382795856654071,0.12984819722404217
5.812,0.07054163281609882,0.0949337801023058
5.816,0.03993287248428423,0.07544133295224831
5.82,0.03360929048596262,0.07659701007662445
5.824,0.05554867677939557,0.09837327356572834
5.828,0.10144433602619385,0.13678783733348898
5.832,0.1622520889959056,0.1852911482198154
5.836,0.227502357059443,0.23678001648826208
5.84,0.2861451517420721,0.28507192104355616
5.844,0.3276855296089698,0.32372210702445536
5.848,0.3450106247214819,0.3454988496008289
5.852,0.3370020973908392,0.34523035068711594
5.856,0.3078222129793582,0.322617925703395
5.86,0.2633487612115071,0.2823412524586131
5.864,0.20976569054428573,0.23227460318298832
5.868,0.154713232000943,0.18125021372749783
5.872,0.10671751567373033,0.13725440086525653
5.876,0.07311831220660014,0.1063913261375371
5.88,0.05901097628030105,0.09246081789279104
5.884,0.06651241870940416,0.09649415846715681
5.888,0.09357734816590657,0.11635545191948404
5.892,0.13344902224680877,0.14679012309377582
5.896,0.17552503465302682,0.18000473625197233
5.9,0.20871012446420356,0.2079853973368888
5.904,0.2268958503365548,0.22633344269271194
5.908,0.23191928453321986,0.236100615778698
5.912,0.23050261293432683,0.24149068961312015
5.916,0.22842104161767773,0.24584367611702085
5.92,0.22761590217276284,0.24961924154947535
5.924,0.22724682750041825,0.2516528104623543
5.928,0.22609617412650707,0.2519363084034183
5.932,0.22465169527296092,0.2528272929178055
5.936,0.22527359489872345,0.25768934006905186
5.94,0.2303042642947739,0.2690130796037755
5.944,0.2413793741713368,0.28765496281990455
5.948,0.25918352448248827,0.31182924839488946
5.952,0.27818702927668304,0.33294721303983055
5.956,0.2801493631369525,0.33100460764724504
5.96,0.2374765571395414,0.2784174812932525
5.964,0.12698281871718842,0.15449906606024544
5.968,-0.051169040738813676,-0.035131736438736016
5.972,-0.25398699418020476,-0.2430502493015131
5.976,-0.3961580006398593,-0.38547210180593905
5.98,-0.38815676100506336,-0.37804538281612465
5.984,-0.18907841666980818,-0.18270148383166063
5.988,0.1643612325499222,0.16495300147255776
5.992,0.5665990535015906,0.5623849810702388
5.996,0.8824537950789597,0.8766613291456506
6.0,1.0,0.9956721184194526
6.0040000000000004,0.8754825805097928,0.874424042391929
6.008,0.5519733784620233,0.5557734143793869
6.0120000000000005,0.1425858614712654,0.1532434174026891
6.016,-0.2156124104733872,-0.19587467934494662
6.0200000000000005,-0.4149759906307151,-0.38466664072602563
6.024,-0.4161298254863566,-0.3769286047622905
6.0280000000000005,-0.25888872805108,-0.21591440141174123
6.032,-0.03632613561021769,0.006228230490187725
6.0360000000000005,0.1584272714017665,0.2005023272001838
6.04,0.27622550725470707,0.3193385151475099
6.0440000000000005,0.3178713186373494,0.3608015484605507
6.048,0.3111334624787032,0.349565862798658
6.0520000000000005,0.2863005947070154,0.3164452993115754
6.056,0.2638393109955064,0.28563566068854374
6.0600000000000005,0.25168350514003923,0.26869937077403994
6.064,0.2485696712058465,0.26533208209462567
6.0680000000000005,0.2503827941741492,0.26978222471227875
6.072,0.2538077970529993,0.2766829596848346
6.0760000000000005,0.25651574031102187,0.28273971815825694
6.08,0.25788572018436606,0.286521952414202
6.0840000000000005,0.2593508347476665,0.28760293636645207
6.088,0.26185992791729107,0.2856849084475952
6.0920000000000005,0.2636429558849631,0.2808129321397683
6.096,0.2611197028550778,0.272933378622761
6.1000000000000005,0.25136198432729384,0.2604374582050102
6.104,0.23321789929308578,0.24066145883075118
6.1080000000000005,0.2062973491057274,0.2123911532058702
6.112,0.17106784991720203,0.17723383885523658
6.1160000000000005,0.1303229212533079,0.1387641580001393
6.12,0.08822073976832634,0.10100560495049327
6.1240000000000006,0.048780012604552336,0.06764955010608298
6.128,0.016529053833579832,0.04193865310646583
6.132000000000001,-0.004213725377306687,0.026178123666333875
6.136,-0.011610918797724246,0.02060741082863693
6.140000000000001,-0.006192997377681864,0.023520310982684034
6.144,0.01064449775769516,0.03362680140988017
6.148,0.03670641510046302,0.05152940080252577
6.152,0.06873091714345803,0.07762283864753661
6.156,0.10329392708607732,0.10907510762234152
6.16,0.1372228441991581,0.14053846059875275
6.164,0.16752620819216668,0.1688101641964288
6.168,0.19281158186477132,0.1957057443967185
6.172,0.21414604596294162,0.2251196972559486
6.176,0.2337857742075704,0.25853101037053206
6.18,0.2542634305291982,0.2941783999281471
6.184,0.27780102104500193,0.3288835946909858
6.188,0.30472646850481544,0.35942859072972233
6.192,0.33252772328967706,0.3830751712929108
6.196,0.35637332491130813,0.3982911813654628
6.2,0.371132701631125,0.40496325507877917
6.204,0.3741046179102303,0.40340667682792253
6.208,0.36538212025675354,0.3939336116220944
6.212,0.3459676939677798,0.3772036123613871
6.216,0.31725192656143353,0.3538147574084365
6.22,0.2824023986297661,0.32415468594037367
6.224,0.2461886678200842,0.2893220876553513
6.228,0.21233547697921096,0.2512957168612553
6.232,0.18176557332897403,0.21192398663795164
6.236,0.1525861429454649,0.1719051733884831
6.24,0.12186828743059852,0.13073187283708232
6.244,0.0893609173506511,0.08870279210107923
6.248,0.058332150946621475,0.04935299076457311
6.252,0.03271558566802124,0.018444380296142482
6.256,0.015131454218258122,-4.822808032622916e-05
6.26,0.0064704025894672945,-0.005985720294465979
6.264,0.007158040011638889,-0.0005413426571773128
6.268,0.018687330432298754,0.016403120855078557
6.272,0.0419101500739707,0.04447578125993168
6.276,0.07435007163202512,0.08080369812071919
6.28,0.11100019923184701,0.12182821777571684
6.284,0.14698193380123725,0.1650466683217049
6.288,0.17839577593585854,0.20706403300824672
6.292,0.2024518959475783,0.24161266519749347
6.296,0.2180337577671927,0.2625121123277221
6.3,0.22552255599262283,0.2689346740649221
6.304,0.22619131258953806,0.2662458242603962
6.308,0.2219716062974848,0.2613926232485366
6.312,0.21563047433997906,0.2578854123201837
6.316,0.20994296687678293,0.2547961284880218
6.32,0.20589953793322602,0.24980086337550889
6.324,0.20284861332960036,0.2423255045774031
6.328,0.2003055954150912,0.23375061701416722
6.332,0.19866724816833603,0.22620282915204193
6.336,0.1985075349990313,0.22138807210667144
6.34,0.1998528760505438,0.2195618657919991
6.344,0.20209341612478138,0.21968353636290594
6.348,0.20418902286896223,0.22029034769934386
6.352,0.20503428437830507,0.21985416404835179
6.356,0.20377888497734964,0.21713367292070984
6.36,0.19995834286822212,0.21233838151659823
6.364,0.19372538691767138,0.207349756553749
6.368,0.18649072498007646,0.20346926649940156
6.372,0.18090004671515558,0.20046650691771317
6.376,0.1786939025539347,0.19862384078122775
6.38,0.17914096381872247,0.1991288507851332
6.384,0.18046004570812624,0.20189409344460096
6.388,0.1816103241542224,0.20481025200293157
6.392,0.18225009317922725,0.2056284360611782
6.396,0.18166668054797164,0.20382010561320585
6.4,0.17888737377065222,0.2002330124441576
6.404,0.17441315256469747,0.19579738543661995
6.408,0.17056294491744883,0.19137752059999502
6.412,0.16929505686371504,0.18790206826893474
6.416,0.17075568278924025,0.18588275543027266
6.42,0.17403917623566123,0.18577553713737016
6.424,0.17816212843602086,0.18841755857355147
6.428,0.1823151651238495,0.19383311963088423
6.432,0.18581627646851673,0.20023085620956382
6.436,0.1881467863202273,0.2049739499610128
6.44,0.18890433560897724,0.20610510542956484
6.444,0.18756341679375388,0.20310403781629893
6.448,0.18381840072220235,0.1978036998057644
6.452,0.17821732090788256,0.193856493855332
6.456,0.1722909288259069,0.1928573570003851
6.46,0.16804845266671342,0.19264712839469955
6.464,0.16651597478851787,0.19113897490348108
6.468,0.16681966542491855,0.18886950286571835
6.472,0.16755362930558593,0.1867055903087247
6.476,0.1681252481274389,0.1845627827482912
6.48,0.16842879067298422,0.18361528843106578
6.484,0.16886987494904182,0.1866146685209038
6.488,0.17057552861596137,0.19473131358343343
6.492,0.17390401412575174,0.2060380349719455
6.496,0.17694263513099373,0.21707502557085268
6.5,0.1770824209747568,0.22413794091377603
6.5040000000000004,0.17403560802032025,0.22411133039452635
6.508,0.17000531176757794,0.2163143510340806
6.5120000000000005,0.16743635708136706,0.2036306439472697
6.516,0.1672979925583793,0.1913918114872437
6.5200000000000005,0.16888088612894325,0.18451839408002368
6.524,0.17145846266115128,0.18453261913813934
6.5280000000000005,0.17552116460203626,0.1892899202850813
6.532,0.18068211330657946,0.1954408106575467
6.5360000000000005,0.18390788847664363,0.2004415215525388
6.54,0.18196381333524703,0.20346577742229255
6.5440000000000005,0.17465116767834066,0.2054984505247941
6.548,0.16521921718521781,0.20768091510539977
6.5520000000000005,0.15859008113243855,0.20957584413806085
6.556,0.15906007719960868,0.20961129486177965
6.5600000000000005,0.16836098100308328,0.20725790233254715
6.564,0.18449271299133918,0.20420096205614358
6.5680000000000005,0.20222702710456475,0.20226675499894875
6.572,0.21524218522186134,0.20131560991551134
6.5760000000000005,0.2187596682481654,0.20055046025155976
6.58,0.21187615565610507,0.20027602224638108
6.5840000000000005,0.19809174510752947,0.20150837473244287
6.588,0.18358824080559755,0.20497826524438856
6.5920000000000005,0.17424397219678212,0.2101436968757655
6.596,0.1725667654112668,0.21453627564645572
6.6000000000000005,0.17696206200229203,0.2153251278290773
6.604,0.1838075756300166,0.2116210329516146
6.6080000000000005,0.18997997525899457,0.20466846344662093
6.612,0.19390761628709563,0.19714174652030403
6.6160000000000005,0.1947684638321161,0.192069504773692
6.62,0.19171420071689926,0.19075093517971142
6.6240000000000006,0.18483972139373606,0.192564036802648
6.628,0.1762959392863519,0.197091260369183
6.632000000000001,0.16953654353836112,0.20435146075839006
6.636,0.16787645893110636,0.21344520691663527
6.640000000000001,0.17321020520034414,0.222714750211092
6.644,0.1840339420022603,0.23040619174751575
6.648000000000001,0.19479816320370436,0.23455610436823493
6.652,0.19824973504962662,0.23238946852609943
6.656000000000001,0.18854595558718223,0.21973911148420555
6.66,0.164244955200624,0.19305551067286242
6.664,0.13034629229333428,0.15407251289709967
6.668,0.09632835695131226,0.1110434443949988
6.672,0.07197890059818324,0.07475733509701499
6.676,0.06519146712401835,0.05498156952192512
6.68,0.08045420864898878,0.05884383477902522
6.684,0.11695714488250353,0.08904874409758001
6.688,0.1682785161743141,0.14254557809709256
6.692,0.22409726566146615,0.21034278266796202
6.696,0.27335178399284543,0.27908167578580256
6.7,0.30737802643663104,0.33495802281099585
6.704,0.3213037782718402,0.3677667414745529
6.708,0.31412352826769174,0.37264760771248184
6.712,0.28810694686410177,0.350080253860922
6.716,0.24780383043034138,0.3054453013906129
6.72,0.19929299994181182,0.24779488529508753
6.724,0.1497929721707969,0.18758749992826118
6.728,0.10728994901426026,0.13479772013126778
6.732,0.07903300726091134,0.09786099167811968
6.736,0.0689959943162115,0.08213198086792906
6.74,0.07652586535793726,0.08826319840960117
6.744,0.09730668479463667,0.1127097834771642
6.748,0.12544658195467595,0.1491901677532974
6.752,0.15477966472122673,0.18906799193654122
6.756,0.1799055598644146,0.22305457722754785
6.76,0.19829847062108064,0.245184117247498
6.764,0.2113865264238588,0.2550976684609563
6.768,0.22217282181816111,0.25586018931919696
6.772,0.23134452482491574,0.2504415973027778
6.776,0.23622384615628977,0.24149770600016085
6.78,0.2339540371227089,0.23264521838366603
6.784,0.22547939736007372,0.22740415299880046
6.788,0.21590270442575266,0.22765049348199984
6.792,0.21148154749267722,0.23370757464584657
6.796,0.21748633902864078,0.24549851096706443
6.8,0.23755714330087607,0.2642391993105595
6.804,0.27096620432658414,0.291250965926827
6.808,0.3077859410379318,0.321685750808439
6.812,0.3266166073885197,0.3383237743564933
6.816,0.29841637034931523,0.31236809451480596
6.82,0.1977590463307375,0.21518565835940673
6.824,0.02089907042679595,0.03977725614970318
6.828,-0.19587803066982246,-0.17804510603634427
6.832,-0.37386276162528953,-0.3578861960884575
6.836,-0.4206580549767098,-0.40621170836186105
6.84,-0.2796362403646222,-0.2662449847708068
6.844,0.03370438806120313,0.04734170830458728
6.848,0.43134284470708995,0.44709540265403347
6.852,0.7840510018606697,0.8022332272497414
6.856,0.969442095758992,0.9887353502385934
6.86,0.920526650460121,0.9404544112211364
6.864,0.6536753824644521,0.6758473758985231
6.868,0.2621537861533141,0.2892598882597919
6.872,-0.12029883322703838,-0.08596541651354939
6.876,-0.371008583948102,-0.3288791024320582
6.88,-0.42653652035486156,-0.378513685312182
6.884,-0.3060018056502375,-0.2559092020971159
6.888,-0.09285432486678791,-0.04560137856580415
6.892,0.11707247619555172,0.1563039707754028
6.896,0.2631170085320347,0.2901297221958157
6.9,0.3317171851230478,0.34419448337684067
6.904,0.3403501451616142,0.3386119028162038
6.908,0.31659543234952103,0.30469471476727006
6.912,0.2836760487608607,0.2694474510804099
6.916,0.25500295422875685,0.24749180699452467
6.92,0.23569576749004106,0.24100753816656173
6.924,0.2265133836870592,0.2457869812253317
6.928,0.2263263358077885,0.25759580378139546
6.932,0.2320226774393106,0.27309966233016403
6.936,0.23885427527247383,0.2877317010377194
6.94,0.24331702574369873,0.29653595666569044
6.944,0.24545333433177352,0.2974654573193207
6.948,0.2473314789005061,0.29217837187247686
6.952,0.2499149064854178,0.2835999875754698
6.956,0.2515851215092122,0.2732273751585008
6.96,0.24802552306806103,0.2595869463869116
6.964,0.23381661801897557,0.2387581841109927
6.968,0.20584179279462345,0.20762042527731528
6.972,0.16559365733665365,0.16728646886537524
6.976,0.11884752065307547,0.12336469092044511
6.98,0.07356094749655351,0.08270593416643734
6.984,0.03715000045484129,0.04971255755310966
6.988,0.01378056213224288,0.025487612238030977
6.992,0.0025954427703840377,0.009757414407298493
6.996,-0.0010904235430101439,0.0029683864769733947
7.0,-0.0012804410333840943,0.006344250232343418
7.0040000000000004,0.0026657999216757045,0.020630751118445367
7.008,0.01527278916940622,0.045511032699739884
7.0120000000000005,0.04077939617442805,0.07940858904519099
7.016,0.07966904955951981,0.11933062673360362
7.0200000000000005,0.12788545266466023,0.1619238400295253
7.024,0.17851577026400922,0.20509144833160442
7.0280000000000005,0.22475863320883893,0.2476841000249741
7.032,0.26278620706617595,0.28761149892249294
7.0360000000000005,0.2923058892427952,0.32138495882126383
7.04,0.3150338899677556,0.34576706106873223
7.0440000000000005,0.3337089175650143,0.3599590374941173
7.048,0.35095186469786843,0.3666284735329821
7.0520000000000005,0.3672125235105148,0.3702632607867855
7.056,0.37981587197095945,0.3737079398205079
7.0600000000000005,0.3840342980988254,0.3764218534784678
7.064,0.375838331448753,0.3758267303759584
7.0680000000000005,0.35435926334802237,0.3689447236026788
7.072,0.32170277664915825,0.35336873614382247
7.0760000000000005,0.2814074342497084,0.32878534739885645
7.08,0.23792305536576341,0.2968678636337374
7.0840000000000005,0.1960823599584518,0.25922174706421797
7.088,0.15914885452795846,0.2172594632930298
7.0920000000000005,0.12734327379323207,0.17358441387859602
7.096,0.0987827726877748,0.1319992243407655
7.1000000000000005,0.0719987643329485,0.09592085078069457
7.104,0.04785238084199994,0.06622205147022742
7.1080000000000005,0.02954007861923391,0.04160659130018218
7.112,0.020759517723551335,0.022222380729750357
7.1160000000000005,0.02237093453080763,0.011065741916727267
7.12,0.030643980029764206,0.01139789095301369
7.1240000000000006,0.04055616059067435,0.024800439793836393
7.128,0.05034802512917902,0.05077748702722662
7.132000000000001,0.06213233467190826,0.08623480213590873
7.136,0.07983357337330599,0.12654884724190563
7.140000000000001,0.1069057425560247,0.16786861783512363
7.144,0.14351538146305343,0.20751275441564365
7.148000000000001,0.1841364821146647,0.2421969967847073
7.152,0.21961424704168198,0.2667864074730364
7.156000000000001,0.24321254525105584,0.27665805129023635
7.16,0.25366251633258585,0.2720912422712767
7.164000000000001,0.25329395693252366,0.2588521776557471
7.168,0.24590795592689552,0.24389462687497931
7.172,0.2355448355944436,0.23145765910497196
7.176,0.2246767442484472,0.22326354678218663
7.18,0.21407991557057615,0.22064507639275077
7.184,0.2050723072983589,0.2245456696710011
7.188,0.1998065837204086,0.23348232888214104
7.192,0.19881427542959362,0.24295277395430004
7.196,0.20005506683313223,0.24740180864065908
7.2,0.20097559356820094,0.24319004842984615
7.204,0.20078545165620598,0.23063095189045146
7.208,0.20014795890354686,0.21375526405687872
7.212,0.19944194249960367,0.1985240407112674
7.216,0.19885740695637333,0.18976835412746462
7.22,0.19886883677583445,0.18773862711633305
7.224,0.19867215443799235,0.18889275414153572
7.228,0.19596256001385637,0.19038263384226273
7.232,0.1896887914440506,0.19168926797316543
7.236,0.18156327753040213,0.19296699186800215
7.24,0.174277207700958,0.19381845031704903
7.244,0.16938203108733862,0.1935151609059491
7.248,0.16711887204220743,0.19219902464359406
7.252,0.1669500125782002,0.19125610304153295
7.256,0.16815276807655888,0.19179390171021127
7.26,0.1703982719188386,0.19363989817210414
7.264,0.17323044921864028,0.196331780097438
7.268,0.17565965191538302,0.2000241261387965
7.272,0.1765163235504268,0.20509072665505768
7.276,0.17485647822769534,0.21145277488797065
7.28,0.17107031168544595,0.21795076012490933
7.284,0.16686799533596552,0.2219439048128684
7.288,0.16320553253373093,0.22021814488580072
7.292,0.15972717750340615,0.21098133807349484
7.296,0.15648529842124748,0.19563456710581661
7.3,0.1551480022266989,0.17922970114738068
7.304,0.15782928585394584,0.16843966146228806
7.308,0.1642326474165272,0.16740768573638443
7.312,0.1710335937837475,0.17524859525369485
7.316,0.17475967780048562,0.18776104318045705
7.32,0.17476160903021998,0.20029902564738955
7.324,0.17369341605198474,0.20909857614982053
7.328,0.17473940249890085,0.2120587374937506
7.332,0.17822306058356951,0.20923643436808415
7.336,0.18195982075880535,0.20298546265399442
7.34,0.18438637147631853,0.19752989318258796
7.344,0.18594900794209268,0.19656088932966087
7.348,0.18750293112212413,0.20052150389436618
7.352,0.18887935730960637,0.20645241124826685
7.356,0.18971161583156881,0.2100643440233032
7.36,0.19006456089441603,0.2086818108680204
7.364,0.18973455089997282,0.20302621024662426
7.368,0.18824271158616912,0.19622866266474315
7.372,0.18562306001015605,0.19133345904950527
7.376,0.18239160380414976,0.18946698377328075
7.38,0.1785048361054773,0.19002963378883586
7.384,0.1737237372326479,0.19255136620948088
7.388,0.16957038378679368,0.19737236820635906
7.392,0.16846488556048778,0.2039921508177298
7.396,0.1704806966571486,0.21012372997609563
7.4,0.17341105005291224,0.21302696093818208
7.404,0.17558221457914613,0.2112930883220152
7.408,0.17668105192018424,0.2055835830103847
7.412,0.17712565905800792,0.19802672497500495
7.416,0.1782705444645598,0.1912036743975365
7.42,0.18193447991040812,0.1877405273288728
7.424,0.1886968712833621,0.18978622834793368
7.428,0.19723660772281515,0.19719143035329356
7.432,0.20456833086303283,0.20614028251592775
7.436,0.20680952709938816,0.21180558471609112
7.44,0.20171814054280301,0.21262893059393884
7.444,0.1904110557203087,0.21031173169652795
7.448,0.17638912900401738,0.20684812763053806
7.452,0.16418130191192581,0.20365717233833847
7.456,0.15773251596510307,0.20198916334288897
7.46,0.15832248798582937,0.2017891382518886
7.464,0.1639832450353098,0.20162917388780177
7.468,0.1711014712515888,0.20104159592295678
7.472,0.17692368318977691,0.20084873991235375
7.476,0.1809661604706705,0.20145648358964863
7.48,0.18450101224131332,0.20309291589350753
7.484,0.18900816969421852,0.20665687327399485
7.488,0.19477463601652456,0.2127538655976422
7.492,0.2005304250214095,0.22035515521496962
7.496,0.20445695723063073,0.2269729457137537
7.5,0.20529744296693409,0.23039929596897424
7.5040000000000004,0.2023019809248907,0.22962278903698152
7.508,0.19481014188477408,0.22338482494544887
7.5120000000000005,0.18151366083826104,0.20866753067874
7.516,0.15991906669373335,0.18250018375275423
7.5200000000000005,0.12949098590411,0.14652722157524511
7.524,0.09617916533298576,0.10847435441363373
7.5280000000000005,0.07025654899440625,0.07837674164790043
7.532,0.059141110921721696,0.06463377738871334
7.5360000000000005,0.06485867456026306,0.07213962343592972
7.54,0.08714162334568543,0.10115669922768644
7.5440000000000005,0.12541282887145377,0.14783916417003162
7.548,0.17721531235487942,0.2061533658330943
7.5520000000000005,0.236213882058538,0.26836472688384516
7.556,0.29234691372605326,0.32483865189763983
7.5600000000000005,0.3338568454041786,0.3657815405998326
7.564,0.35083960615703513,0.38333610294351983
7.5680000000000005,0.3394087403902466,0.37263886048534856
7.572,0.3030306297190708,0.3336063930178961
7.5760000000000005,0.2500804001933854,0.27325991377297654
7.58,0.19075106211500303,0.20527129998409577
7.5840000000000005,0.1349875591905496,0.1448010454924764
7.588,0.09103851323601697,0.10216710497914128
7.5920000000000005,0.06434705020199649,0.08079594408214841
7.596,0.05714178729477459,0.07931221966873192
7.6000000000000005,0.06881484484437661,0.09400321556295266
7.604,0.09547473739240453,0.12022441777006088
7.6080000000000005,0.12932539266138932,0.15259411753367003
7.612,0.16156687115662005,0.18495763917166896
7.6160000000000005,0.18750750142828587,0.21195068699751873
7.62,0.20750559540534907,0.2309338459163255
7.6240000000000006,0.2226300281669098,0.24203443264872648
7.628,0.23130064615970336,0.24637627566553055
7.632000000000001,0.2306055681243564,0.24485122387190938
7.636,0.22015626715405356,0.23930532493733958
7.640000000000001,0.2050401001459401,0.2333948378001951
7.644,0.19403027450349608,0.23082017164612667
7.648000000000001,0.19365430040990517,0.23401816125712505
7.652,0.20542753527427804,0.2446942868840256
7.656000000000001,0.22860423434581012,0.2640494002270459
7.66,0.2618983922817377,0.2920359548242013
7.664000000000001,0.30031011463204793,0.32464156548410705
7.668,0.33007187183876807,0.34884791529082393
7.672000000000001,0.32698071758582214,0.3401197479826359
7.676,0.26273939515094735,0.2688566299199604
7.68,0.12007245511719433,0.11794213912894569
7.684,-0.0860097623834698,-0.09389632105210077
7.688,-0.2923145864350367,-0.2993536244429411
7.692,-0.40215191851937837,-0.40171983357184426
7.696,-0.3353838807721653,-0.3244090929257307
7.7,-0.07769726475885175,-0.05745219120208511
7.704,0.30429656896181,0.3293635690787975
7.708,0.6859218972360657,0.7106442556106869
7.712,0.9331329524809222,0.9539504752893391
7.716,0.9562008924618206,0.9723732488264676
7.72,0.7459754634679681,0.759292292520455
7.724,0.37763597914205294,0.39095930325550965
7.728,-0.020469478384254836,-0.004304889372076404
7.732,-0.3186329260575258,-0.29714210195295354
7.736,-0.4359949517079409,-0.40719340262977066
7.74,-0.36927849815112224,-0.331649961567028
7.744,-0.18416510133055175,-0.13741879595323025
7.748,0.02831739934431976,0.08082065680615269
7.752,0.1987584116276062,0.2492104038014451
7.756,0.2985665102385746,0.3386580394229579
7.76,0.33241548861394143,0.3583021258534371
7.764,0.3223255762838657,0.33571019756271503
7.768,0.2935214769964334,0.29989700278835985
7.772,0.2648841071158501,0.27126221677282314
7.776,0.24595338172417502,0.25813334665763477
7.78,0.23878309253849195,0.2592849982196741
7.784,0.2405705520766923,0.26874650520723087
7.788,0.2454497577314545,0.2797139419942125
7.792,0.24724928170488325,0.2873883996832669
7.796,0.24396513947678145,0.2906821815776197
7.8,0.23918465876851935,0.2916871351019614
7.804,0.23805817490447878,0.2925052906759118
7.808,0.24272950910853397,0.29228532454711553
7.812,0.25028596489630006,0.2872334756342876
7.816,0.25350542335180104,0.2731180036104659
7.82,0.24487615045579658,0.2481855527469934
7.824,0.22114693667754026,0.2138577205320824
7.828,0.1847061098731011,0.17342410974945688
7.832,0.14123118903459098,0.1312294706500603
7.836,0.0967802229948942,0.09231729778320985
7.84,0.05739531836917977,0.061123390452898496
7.844,0.028307760198301724,0.039296941965736965
7.848,0.010767691216285735,0.02543311117084568
7.852,0.001977187100755673,0.01772354365003448
7.856,-0.0004901711474413206,0.015453046413589355
7.86,0.004012791804595128,0.018978857585232323
7.864,0.017963651156232663,0.03069050896028158
7.868,0.043178550712642316,0.05381631407297505
7.872,0.07849632654185834,0.08853229416091235
7.876,0.11930689395102823,0.1310516991082975
7.88,0.16044478294130027,0.1763301189782116
7.884,0.19894508112233722,0.22032379893620235
7.888,0.23365164417856965,0.26069720819853237
7.892,0.26452498416144077,0.2963646764643171
7.896,0.2926032449704197,0.32638722508892837
7.9,0.31859997742805324,0.35007668632146216
7.904,0.34169484370327763,0.36805838279118186
7.908,0.35954632067287484,0.38145523417282856
7.912,0.368732045372709,0.38995251911590345
7.916,0.3669810213118283,0.39208200043053787
7.92,0.35539596640113014,0.3871926466675857
7.924,0.3372338363119871,0.3763539513409566
7.928,0.31499636084177673,0.3610277589981763
7.932,0.2891527041687789,0.3405463971596734
7.936,0.2594586614579022,0.31160026347468284
7.94,0.22699561640757748,0.2718235916756604
7.944,0.19420834934101516,0.22375193823234985
7.948,0.16277389763044225,0.1736652392275535
7.952,0.1321224415556963,0.12725420954860844
7.956,0.10145144607891732,0.08788716463019686
7.96,0.0725984274057867,0.05768975430292689
7.964,0.04894900886265474,0.03806157084986417
7.968,0.0326555359195575,0.0291100612049342
7.972,0.024019728878807545,0.029525449071757803
7.976,0.021886203637146773,0.03711112738498312
7.98,0.02518084340918647,0.049641747934221714
7.984,0.03478015935058676,0.06561970190514299
7.988,0.052105373744121275,0.08469229481278506
7.992,0.07695379584138373,0.1080753580793068
7.996,0.10801200087626195,0.13820079175984668
8.0,0.1431449871873931,0.17618903701111566
8.004,0.17844496221377004,0.21809290175816787
8.008000000000001,0.20850077874150874,0.25422199406514734
8.012,0.22808469324768854,0.27466055129256595
8.016,0.23478724960091069,0.2770049448667269
8.02,0.23138639532177385,0.2679503276257955
8.024000000000001,0.2244935939645012,0.2570014240361196
8.028,0.2200120021324241,0.2500301495883728
8.032,0.22040221408870653,0.24792868353891917
8.036,0.22486685459512956,0.24863340410198598
8.040000000000001,0.2305662595358524,0.24965404101239064
8.044,0.23428397722444494,0.24877750258835118
8.048,0.2331473083596005,0.24368566099995936
8.052,0.2245976896326669,0.2332339687349274
8.056000000000001,0.2080381336968169,0.21919168285889867
8.06,0.18693586414072016,0.20565722533209185
8.064,0.168126560363008,0.19610731202153908
8.068,0.15790137531420712,0.19077634063570614
8.072000000000001,0.15810095602601648,0.18771447791861307
8.076,0.16609858578156556,0.18605641212562296
8.08,0.17750309064405068,0.18639708201767702
8.084,0.18765087097674904,0.18835061483796078
8.088000000000001,0.1928310277936809,0.18973810504769295
8.092,0.19307917185210077,0.18843395008783848
8.096,0.19207495276472453,0.18426078901615206
8.1,0.19270539957903932,0.17915385924333194
8.104000000000001,0.19493798303249865,0.17615796821504714
8.108,0.19722592381487014,0.1779043530400779
8.112,0.19723037259843457,0.18465785200704055
8.116,0.19238765030983584,0.19377369477983786
8.120000000000001,0.1815838483882075,0.20186070086256147
8.124,0.1663990280148595,0.20758440299456038
8.128,0.1508123843915643,0.2121538974992745
8.132,0.13953835307966833,0.2168186337253879
8.136000000000001,0.1358839015539317,0.22040121200494434
8.14,0.14046458596461386,0.220117521563298
8.144,0.1514992655621481,0.21485071979398596
8.148,0.16576014142336182,0.207068750381167
8.152000000000001,0.1795861240500043,0.20089707896686582
8.156,0.18999894439010312,0.1987385939062929
8.16,0.19493489057717195,0.20007597621386242
8.164,0.19315958238993325,0.20278141743525468
8.168000000000001,0.18542182199297952,0.2055846743685088
8.172,0.1754208088134901,0.20891609619755158
8.176,0.1684177368512645,0.21272468230060482
8.18,0.16804712016316614,0.21518154397633737
8.184000000000001,0.1739021102139766,0.21456794452719774
8.188,0.18219844395663087,0.2105562229166702
8.192,0.18867117874408557,0.20335086250503287
8.196,0.19071155979968535,0.19402873616939154
8.2,0.18814675727177188,0.18557256529038568
8.204,0.18308313725723702,0.18111188685662816
8.208,0.1783651243869635,0.18119108473391665
8.212,0.17583240731948924,0.1834693145192685
8.216,0.17555396786106203,0.18486538823623855
8.22,0.17607480948676235,0.18430950690913694
8.224,0.17572974472689906,0.18331653390774805
8.228,0.17399155478467065,0.1839020350288565
8.232,0.1720377599465288,0.18691115078691922
8.236,0.1720280667767149,0.19235286294286458
8.24,0.17522185930879375,0.19986226689956776
8.244,0.1811904106891049,0.2080347655976833
8.248,0.18807149667397072,0.21379682635899022
8.252,0.1930517611128164,0.2139385197517456
8.256,0.19418484333543828,0.20861369308541255
8.26,0.1917005093275297,0.20214656880516624
8.264,0.18697700429802389,0.19900304759815657
8.268,0.1811636713624083,0.19974501677419143
8.272,0.17511623451455094,0.20142719046463076
8.276,0.16963356109959338,0.20106758393669177
8.28,0.16512875271590755,0.1978974999355918
8.284,0.16154608781517,0.1930366755141819
8.288,0.1586858657485839,0.1886894806086965
8.292,0.1568708414700617,0.18734527468039652
8.296,0.15760659550999723,0.19040323292635275
8.3,0.1624065188631829,0.19758316882368376
8.304,0.17064887393938855,0.20726245628876305
8.308,0.18006175893514875,0.2163206553773367
8.312,0.18882345052093874,0.22076041317548145
8.316,0.1958619184325907,0.2188048713794397
8.32,0.20054598605555674,0.21304310776268065
8.324,0.20311638950468458,0.20754261952141118
8.328,0.20427884091224535,0.2038514345439768
8.332,0.2039857173094657,0.20178725813899234
8.336,0.20145187494226047,0.20203711423338033
8.34,0.19663523012378437,0.20560275425638097
8.344,0.19093670630138693,0.21246008293901109
8.348,0.1866090653838055,0.2221084433254228
8.352,0.18589194334589654,0.23367216841400484
8.356,0.18951433728779943,0.24481124211983096
8.36,0.1951004940448593,0.2516076667308669
8.364,0.19718006326570747,0.24954715059773913
8.368,0.18953000462898384,0.2349083098882343
8.372,0.1689032178332126,0.2062542539478942
8.376,0.13753754407745533,0.16557676880679795
8.38,0.10238172383374189,0.11915977091995456
8.384,0.07205412668872202,0.07714457864364332
8.388,0.05452283732760255,0.05085928371777171
8.392,0.05561022048049913,0.048742825144215685
8.396,0.07743294755210384,0.07266750746265593
8.4,0.11828705054226596,0.11737942839368731
8.404,0.17293060041819297,0.17433135257333698
8.408,0.23241126962861336,0.23609925799639853
8.412,0.2861593505037532,0.29606111108114175
8.416,0.32561143229878775,0.3451720726698344
8.42,0.3456041508579464,0.3727673961599973
8.424,0.34325809820250686,0.37177548754149026
8.428,0.31738311223676097,0.3421317942971811
8.432,0.26992775593322627,0.29012968887662005
8.436,0.207207291321011,0.22590657308765527
8.44,0.13925709415179455,0.16112600578531944
8.444,0.07858376883951701,0.10725891181502334
8.448,0.03806263152501388,0.07280620488150125
8.452,0.026732991918968718,0.06108715305980872
8.456,0.04527894464147697,0.07128626253437753
8.46,0.08526538363558966,0.09935550223971279
8.464,0.13329207938255871,0.13737577441519266
8.468,0.1763752958007203,0.176052083544334
8.472,0.2063307455369363,0.20952194934825563
8.476,0.2221840437514666,0.23641604926591975
8.48,0.22818553360908722,0.25728643600800316
8.484,0.22922249832643415,0.27247318822913535
8.488,0.22798833322562917,0.28132183671128286
8.492,0.22494308276998742,0.28213657266686964
8.496,0.22041379865990884,0.2737075289884401
8.5,0.2169787071326783,0.2585041262175416
8.504,0.21883400063620662,0.24347181497555548
8.508000000000001,0.22859418680628774,0.23630831944885533
8.512,0.24602803754307745,0.24215007970169067
8.516,0.269527596036671,0.26318312292827195
8.52,0.2960497823635393,0.2965841786381569
8.524000000000001,0.31716595641147505,0.32920005051620826
8.528,0.31474313927729347,0.335253830908683
8.532,0.2627174478348888,0.28357316831519275
8.536,0.13920027150095016,0.153982322518744
8.540000000000001,-0.051655920698205016,-0.04309158391543033
8.544,-0.26027719436125274,-0.25346724078384664
8.548,-0.39850939802860486,-0.388350437734278
8.552,-0.3805520905987986,-0.36321875185531105
8.556000000000001,-0.17258833314673816,-0.1457278800798003
8.56,0.18180103547817783,0.21846477274924125
8.564,0.572748723133248,0.6165889183195574
8.568,0.8651845068269726,0.9120466138897358
8.572000000000001,0.9531686927851653,1.0
8.576,0.804015058188924,0.8491671830756244
8.58,0.47205779580167784,0.5136583701413244
8.584,0.07613154877690387,0.11213735195568053
8.588000000000001,-0.24933622489727136,-0.219143156483939
8.592,-0.40797017004400515,-0.38202856606465907
8.596,-0.37618351969455277,-0.3541185158701883
8.6,-0.20484618499385643,-0.18863864704773103
8.604000000000001,0.013407200603670066,0.022332975266942334
8.608,0.19457221403454494,0.1980456399625563
8.612,0.29833293257884463,0.299946552605429
8.616,0.32885592396117036,0.33127298302655106
8.620000000000001,0.31411497373413333,0.31925657561201937
8.624,0.28399361969465686,0.29425111181342967
8.628,0.2570627878706828,0.27507444253627544
8.632,0.23949757212409595,0.266563765747851
8.636000000000001,0.23188727813097976,0.26579229938333593
8.64,0.23399297508147954,0.2686330183158048
8.644,0.24408318634743575,0.2718202240374241
8.648,0.25741750285747367,0.27276724305978006
8.652000000000001,0.26763094459024295,0.2711902135098414
8.656,0.27047784963043386,0.27020785710232387
8.66,0.2663917555802964,0.2736136051573552
8.664,0.25902423030934485,0.2811413866025012
8.668000000000001,0.2510363216545892,0.2869036656139565
8.672,0.24136587765642536,0.2835785708337548
8.676,0.2269532083326118,0.26710157742615936
8.68,0.20597846204818948,0.2377026788313943
8.684000000000001,0.17809467998987571,0.1991104101993233
8.688,0.14402447841590504,0.15631433775367043
8.692,0.10656698011913512,0.11349708806859549
8.696,0.06998954752130238,0.07491798809070871
8.700000000000001,0.038417838072177135,0.045734724350659395
8.704,0.015215840506090483,0.02953992798821381
8.708,0.0021849286213120322,0.025543889074345794
8.712,-0.001055201315385168,0.02985990027210761
8.716,0.0036459043877570263,0.03939268915548877
8.72,0.014669033964847422,0.05289224508530932
8.724,0.03208544489740728,0.06944139116772874
8.728,0.05692840508101815,0.08856110493035363
8.732,0.08895093667625242,0.11130510160566831
8.736,0.12597450688051182,0.1393985831667488
8.74,0.16505494885949723,0.1735125150535073
8.744,0.2036694802101,0.21295750179266704
8.748,0.24040266165256252,0.2561590536665037
8.752,0.27509853130332873,0.30053022828185205
8.756,0.3082629285633578,0.34237772075428086
8.76,0.33971582198430617,0.3778245192104841
8.764,0.3677461138418192,0.4034277064279084
8.768,0.38915611153944707,0.41629834265364485
8.772,0.39959488995374404,0.4153439636602225
8.776,0.3956091591816169,0.40244722731219795
8.78,0.37715548322493064,0.3818228924347924
8.784,0.34774816885420456,0.35808174373089674
8.788,0.31316588336080575,0.33427331683057626
8.792,0.27868261617160006,0.31084778706284544
8.796,0.24536728265935848,0.28555426459765676
8.8,0.2103559181034369,0.254244553083264
8.804,0.1718831860638541,0.21351266293816873
8.808,0.1327057713531823,0.1647491249882318
8.812,0.09777512381537234,0.11528466623890887
8.816,0.06974061847359381,0.07391153517124005
8.82,0.0478073706238864,0.04534306462497861
8.824,0.029720056566872932,0.028702071998582657
8.828,0.0138904175740715,0.02001842480437177
8.832,0.0007969729196011244,0.016211590152489297
8.836,-0.00674474346834919,0.017444371830094063
8.84,-0.0042707727162571985,0.026610509603395505
8.844,0.012982781521880371,0.04702695471264118
8.848,0.04718819229806348,0.07964215032965072
8.852,0.0946947537838716,0.12147803967118187
8.856,0.1467522882935326,0.16628549637757528
8.86,0.1944210169831022,0.20695991253839896
8.864,0.23128391260857906,0.2385146793445485
8.868,0.25287794088408155,0.2595620791236215
8.872,0.2584453152548569,0.27138911964754664
8.876,0.2530485756208303,0.276035102917189
8.88,0.24436810034810086,0.27496983265216834
8.884,0.23723605659030844,0.26901224808205804
8.888,0.23189730375797302,0.25918621396829966
8.892,0.22608666189775373,0.24726267875425245
8.896,0.2180217552805963,0.23526309246368626
8.9,0.20837450928022871,0.22468753847990497
8.904,0.1994190573791692,0.2165280905130491
8.908,0.19220600880768823,0.21158194476175596
8.912,0.18643986551150138,0.2101115128279749
8.916,0.18295562265753174,0.21154395579145424
8.92,0.1832488029061894,0.21464544882705572
8.924,0.18672520331470754,0.21772719406614627
8.928,0.19056434255953025,0.21875641764849374
8.932,0.19210353479369724,0.215658543002045
8.936,0.19092811727866543,0.20772079105093133
8.94,0.18820206129845918,0.1974049542499139
8.944,0.18436055500284687,0.18977246810591586
8.948,0.17942464488589027,0.18859171155219157
8.952,0.17461123420544422,0.1930539372789859
8.956,0.1714792567132728,0.19955529442634545
8.96,0.17042957048024676,0.20547454076397376
8.964,0.17114265045032018,0.20974834615932747
8.968,0.1735513886653295,0.21223998765183305
8.972,0.1773323627343979,0.2138924826051387
8.976,0.18069587310398671,0.21532382551835427
8.98,0.18061430966730918,0.21529824039475076
8.984,0.17517215527137786,0.2120225998064329
8.988,0.16613758241447352,0.20504635788096626
8.992,0.1585761206667582,0.19568796379388398
8.996,0.15737081632938565,0.1866978170072302
9.0,0.16420015532899201,0.18096841708137434
9.004,0.17662406812770914,0.1795188143138391
9.008000000000001,0.1887718088280257,0.18079076659345694
9.012,0.19458219189281634,0.18235454281784746
9.016,0.1921795422913808,0.18339223426742812
9.02,0.1844665236790033,0.1851357483312568
9.024000000000001,0.17531288126068323,0.18889793679291178
9.028,0.16667159457144276,0.19466299086912553
9.032,0.1598544143741376,0.2015771411223939
9.036,0.15729988937458006,0.20795544762271057
9.040000000000001,0.16112220531235466,0.21054856168121594
9.044,0.1707531832271867,0.20649373028037998
9.048,0.1825231224947359,0.1970099357367645
9.052,0.19155645544327116,0.1873036553433951
9.056000000000001,0.19513441964514122,0.18234131010022203
9.06,0.1942574728271249,0.18353268715890936
9.064,0.19164943683160018,0.18909715322273657
9.068,0.1893112134440118,0.19625034188050328
9.072000000000001,0.1883715734450624,0.202430128573162
9.076,0.18962532046269542,0.20600944960441314
9.08,0.1923563121480647,0.207277463495658
9.084,0.19335603220444564,0.20749947324543894
9.088000000000001,0.18920189867765935,0.20674256491592624
9.092,0.17953536323817687,0.20444354508481255
9.096,0.16706090569512488,0.20145848893646057
9.1,0.1552358599234689,0.19937931560622513
9.104000000000001,0.14729010674238285,0.19846869841196657
9.108,0.14566158476894042,0.19793647078494914
9.112,0.15055245847685872,0.197647855590811
9.116,0.15974804275784926,0.1978552667667215
9.120000000000001,0.1701329878517377,0.1977742977590886
9.124,0.17952110874378957,0.1963922324827112
9.128,0.1868150690495034,0.19416426453025615
9.132,0.19087816358121756,0.193194921818594
9.136000000000001,0.1911482920830463,0.1962854684592763
9.14,0.18850417492069593,0.20467085471339175
9.144,0.18430129681913554,0.2157157271483474
9.148,0.17978467135392018,0.22369794115964403
9.152000000000001,0.17614837128378036,0.22406931601275804
9.156,0.1738749487595439,0.21698842581555744
9.16,0.17276919415099745,0.2065664209815723
9.164,0.17310887152999244,0.19802425292710035
9.168000000000001,0.17559794009066154,0.19502414039566296
9.172,0.18032926797623117,0.19762126037973005
9.176,0.18664877692451887,0.2033070812103972
9.18,0.19344975469780046,0.20977067493181623
9.184000000000001,0.19945938706606592,0.21531456600574383
9.188,0.20381635431263145,0.2181824294288941
9.192,0.2061093307791546,0.2171144540742458
9.196,0.20555676950473134,0.21278075075665814
9.200000000000001,0.20092419849521348,0.20789661978758733
9.204,0.1924953106638041,0.20485529120517132
9.208,0.18372429967683446,0.2042925028613778
9.212,0.17942448304111513,0.20630353171850246
9.216000000000001,0.18182118803303893,0.2109065568181061
9.22,0.18792432596942144,0.21649575628828788
9.224,0.19024938645831657,0.21904634523092592
9.228,0.18088316563049123,0.21330932863154461
9.232,0.15647151957734162,0.19519355674728445
9.236,0.12064806087366597,0.16461315704259016
9.24,0.082517995892462,0.1270196853434924
9.244,0.05320041095466066,0.09226431235755017
9.248,0.04263740319794662,0.07125886259023506
9.252,0.056847533242188275,0.07203041790306064
9.256,0.0957055504951616,0.09758957344276298
9.26,0.15235097349379778,0.14562416212347284
9.264,0.21531791452643456,0.20828492796962306
9.268,0.27257717255889014,0.27341545737050255
9.272,0.3152713331723136,0.32804274841681713
9.276,0.3396045556007692,0.36135283325956835
9.28,0.3455357585325185,0.3664988725364069
9.284,0.3330520159424635,0.34217893141792843
9.288,0.30081828603190375,0.2929701133416216
9.292,0.24978998968651522,0.22846735237072213
9.296,0.18693867037399192,0.16182447058006755
9.3,0.12366997461699092,0.10686232357823044
9.304,0.07141898666803659,0.07423162566329289
9.308,0.03924235905735918,0.0685855206876802
9.312,0.03269245849627711,0.08792711086681226
9.316,0.05240056480934241,0.1250976511461619
9.32,0.09313467939503606,0.16996104815628899
9.324,0.1438700311293406,0.21125599052166644
9.328,0.19103030446321734,0.23967646438033663
9.332,0.22475571221071,0.2518634986516042
9.336,0.24198823304318995,0.251267035325754
9.34,0.2442448106632873,0.24484429931207297
9.344,0.23455432357572725,0.2386596418382536
9.348,0.21712127654136437,0.2353765836753794
9.352,0.19888789221939573,0.23482544661456672
9.356,0.1880255339862711,0.23628569375668262
9.36,0.18948747228721885,0.23968697362177394
9.364,0.20369770347322835,0.24532159695441558
9.368,0.22889245941338987,0.25467099177042685
9.372,0.2629186805956103,0.27110359775576764
9.376,0.30141458480337624,0.29645555526442835
9.38,0.33342215259589225,0.3249534285004616
9.384,0.3391901949815581,0.33846067597111373
9.388,0.29300229710515113,0.3076536421310714
9.392,0.17296004966964196,0.20493025274317955
9.396,-0.019877308249720338,0.026897849131531704
9.4,-0.24101669000743642,-0.18631538665854108
9.404,-0.40452102751239183,-0.3525284489803854
9.408,-0.42047617693449046,-0.38068946625021827
9.412,-0.245010312969133,-0.22069206470117886
9.416,0.09142401304598713,0.10335333252944734
9.42,0.4904717235802327,0.4958671898577385
9.424,0.8210937012150008,0.8251068570518978
9.428,0.9692373059838271,0.9745738398675945
9.432,0.8823525623100921,0.8892982859341487
9.436,0.5907545415973376,0.5983839670845308
9.44,0.1971352356833822,0.20436503978145026
9.444,-0.16319829010469278,-0.1572420363386544
9.448,-0.3768416542024343,-0.372191723308851
9.452,-0.3971611450892204,-0.39230020163596946
9.456,-0.257296831195858,-0.2494521478104591
9.46,-0.04428801414516026,-0.030569591036537336
9.464,0.15108078638100997,0.17260853034476065
9.468,0.2756986791359284,0.30597957465652215
9.472,0.3229224832597857,0.3624954793503501
9.476,0.31630348360055316,0.36446080998628627
9.48,0.28791217030951843,0.3405538559307115
9.484,0.262272387149876,0.31166792321776104
9.488,0.24965854856117264,0.28793276470748586
9.492,0.2480413466274003,0.27184665125438223
9.496,0.250525221285927,0.26235614191806955
9.5,0.2521549979011475,0.2578159571074299
9.504,0.2510566718859353,0.256913261814248
9.508000000000001,0.2474074115010223,0.2589317427524833
9.512,0.24365589174120683,0.264588419914799
9.516,0.2428599495509416,0.275029602986923
9.52,0.24513960071530927,0.28887191560317227
9.524000000000001,0.24710579610262284,0.30098950504469757
9.528,0.24455391258703574,0.3036890602737061
9.532,0.2340789967057031,0.2894275770298731
9.536,0.21333170934390155,0.2555739695323074
9.540000000000001,0.1823878817549609,0.20736825751978083
9.544,0.14476101775108963,0.15440529908366996
9.548,0.10612830643419335,0.10469301793056629
9.552,0.07227206582354984,0.06271283043656495
9.556000000000001,0.047180521811976295,0.03061258193134231
9.56,0.031564021485453786,0.009198629566514738
9.564,0.023240955019751652,-0.0016927598937207522
9.568,0.01909920322272618,-0.0030015078818848018
9.572000000000001,0.017374890574253676,0.004381975868846144
9.576,0.019184199445082095,0.02071173517277569
9.58,0.027746104008649963,0.046682348053670664
9.584,0.045924359588394914,0.08119073948095323
9.588000000000001,0.07457547470526027,0.1205774935477677
9.592,0.11254615277218405,0.16085263783393922
9.596,0.15703586505320533,0.20007523803291805
9.6,0.20355276603443695,0.2379173852505292
9.604000000000001,0.2465920675806772,0.27382826237857594
9.608,0.28172094908923917,0.3064975270015238
9.612,0.3079423708586786,0.33513814036344125
9.616,0.32817056336211947,0.36044413194511593
9.620000000000001,0.346024002584302,0.3826490456774292
9.624,0.3616001704194687,0.39921968642255123
9.628,0.37141749717486694,0.40670478114196196
9.632,0.3720272311043069,0.40423367488965356
9.636000000000001,0.36246130894880446,0.39369530637017336
9.64,0.34396138696271206,0.3769361410484371
9.644,0.3190678566405385,0.3536441017142229
9.648,0.29092368974369065,0.32286414331808855
9.652000000000001,0.261750046928918,0.2858095148089188
9.656,0.23133204380116346,0.24527586947339297
9.66,0.19772735921544804,0.20361024563240293
9.664,0.15974399168869424,0.16292758423849563
9.668000000000001,0.11922866876360216,0.12562606441692314
9.672,0.08118632305502493,0.09377061596753355
9.676,0.050504215728244484,0.0685133567389602
9.68,0.028696992641224828,0.04950327253420728
9.684000000000001,0.014926608450025025,0.03509385686230937
9.688,0.008996756829040553,0.024616694902983793
9.692,0.011580568201904784,0.020261481571439477
9.696,0.022246988539298185,0.025572425706563928
9.700000000000001,0.03905817740323747,0.042552383402594485
9.704,0.06009892830355734,0.07052131736262401
9.708,0.08432458167148305,0.10675681620701205
9.712,0.11132815691706988,0.14774400664443865
9.716000000000001,0.14115193898307998,0.1895326560606001
9.72,0.17350468771064298,0.2272161138312736
9.724,0.20623635142496322,0.2554420269136841
9.728,0.23487826877511475,0.270362218928452
9.732,0.2546976604892883,0.271992867835239
9.736,0.2636858561123887,0.26482941107401725
9.74,0.26279446109551285,0.25512399669547614
9.744,0.2536933412132265,0.24735706515993505
9.748,0.23829974286399014,0.24284679636060003
9.752,0.22051796461477746,0.2403055965470262
9.756,0.20563862630580454,0.23727059010195495
9.76,0.19620131579929123,0.23207096696631746
9.764,0.19014437411316565,0.2256972017554859
9.768,0.1849242353370122,0.22122316181585666
9.772,0.18176666435020694,0.2207211749222162
9.776,0.1836165870461688,0.22344499664546258
9.78,0.1902941044040256,0.2264473288384108
9.784,0.1979111303840666,0.22626999195314057
9.788,0.20239015762335377,0.22127005258594923
9.792,0.2022371803298204,0.2131258508772409
9.796,0.19852466693321924,0.20569182382882922
9.8,0.19289020952723113,0.20173283059952407
9.804,0.18606048832921984,0.20089245996623228
9.808,0.17882229443080777,0.20125016133826534
9.812,0.1724654440528517,0.20164479388873624
9.816,0.16763681494932436,0.20135416099779335
9.82,0.16463408302128624,0.1986671575829071
9.824,0.16394055344420888,0.19206752010185424
9.828,0.16544982809929243,0.18316007928455846
9.832,0.16814123943057857,0.17638098239773625
9.836,0.17090302357483744,0.17534752462435566
9.84,0.17318267203280047,0.18013694850673834
9.844,0.17448276640665017,0.18735419814512477
9.848,0.1742577419042537,0.19267302674853348
9.852,0.17301421363750147,0.19424074640836952
9.856,0.17243550169912658,0.1935538321223116
9.86,0.17328877564341405,0.19280830461130694
9.864,0.17411801980067287,0.19252571491281167
9.868,0.17361041726891435,0.19195664576960936
9.872,0.17310818502855074,0.19078435448925735
9.876,0.17521963510875693,0.1897608596146938
9.88,0.18049478286054166,0.1892460455751519
9.884,0.18603359329478386,0.18791951301996357
9.888,0.18727326737366767,0.18431949003921422
9.892,0.18164243896510301,0.17992322267835892
9.896,0.17143058114198295,0.17929577521810303
9.9,0.16241139396193738,0.1852622595033886
9.904,0.15873017883671103,0.19458149831738103
9.908,0.16046639771668114,0.20092711283357834
9.912,0.16627526364259748,0.20190632565744604
9.916,0.1756114059658722,0.2006596943668244
9.92,0.1868584319071649,0.2007722809953587
9.924,0.1951752108476308,0.2020658542860878
9.928,0.19577177643798405,0.20240546484611732
9.932,0.1899150220141903,0.2021063589881451
9.936,0.18395938077481144,0.2042812135951666
9.94,0.1817590166538512,0.21069625711596762
9.944,0.18178874859881144,0.21892339640546354
9.948,0.18090362996350717,0.22452888812776073
9.952,0.17742462428528682,0.2253823732734206
9.956,0.17208816092189205,0.22299660833390322
9.96,0.16766517715930562,0.2203162212766736
9.964,0.16676460221170886,0.2197061085247607
9.968,0.17024015630176392,0.22335631418550506
9.972,0.1774308959788009,0.23343619288430117
9.976,0.18679251598718527,0.24957827249781395
9.98,0.19607420368385364,0.26636568379887327
9.984,0.20193046642080104,0.2746874606957417
9.988,0.20062121726145166,0.2665428810114041
9.992,0.1909391597013088,0.23972057387557832
9.996,0.1758690552417963,0.2002720431223084
